xi,theta
1e-06,0.99999999999975
0.0010009999,0.9999997494998314
0.0020009998,0.9999989990003345
0.0030009997,0.9999977485021101
0.0040009996,0.9999959980065654
0.0050009995000000005,0.9999937475156696
0.0060009994,0.9999909970319547
0.0070009993,0.9999877465585151
0.0080009992,0.9999839960990073
0.009000999099999999,0.9999797456576508
0.010000998999999998,0.9999749952392271
0.011000998899999998,0.9999697448490803
0.012000998799999997,0.9999639944931171
0.013000998699999997,0.9999577441778065
0.014000998599999996,0.9999509939101799
0.015000998499999996,0.9999437436978312
0.016000998399999997,0.9999359935489165
0.017000998299999997,0.9999277434721544
0.018000998199999996,0.9999189934768259
0.019000998099999996,0.9999097435727742
0.020000997999999996,0.9998999937704048
0.021000997899999995,0.9998897440806858
0.022000997799999995,0.9998789945151471
0.023000997699999994,0.9998677450858812
0.024000997599999994,0.9998559958055425
0.025000997499999993,0.999843746687348
0.026000997399999993,0.9998309977450764
0.027000997299999992,0.999817748993069
0.028000997199999992,0.9998040004462287
0.02900099709999999,0.999789752120021
0.03000099699999999,0.999775004030473
0.03100099689999999,0.9997597561941741
0.032000996799999994,0.9997440086282755
0.03300099669999999,0.9997277613504905
0.03400099659999999,0.9997110143790939
0.03500099649999999,0.999693767732923
0.03600099639999999,0.9996760214313763
0.03700099629999999,0.9996577754944147
0.03800099619999999,0.9996390299425603
0.03900099609999999,0.9996197847968971
0.04000099599999999,0.9996000400790707
0.04100099589999999,0.9995797958112884
0.04200099579999999,0.9995590520163191
0.04300099569999999,0.9995378087174931
0.04400099559999999,0.9995160659387021
0.04500099549999999,0.9994938237043995
0.04600099539999999,0.9994710820395999
0.04700099529999999,0.999447840969879
0.048000995199999986,0.9994241005213741
0.049000995099999986,0.9993998607207836
0.050000994999999986,0.9993751215953669
0.051000994899999985,0.9993498831729447
0.052000994799999985,0.9993241454818986
0.053000994699999984,0.9992979085511713
0.054000994599999984,0.9992711724102662
0.05500099449999998,0.9992439370892479
0.05600099439999998,0.9992162026187413
0.05700099429999998,0.9991879690299327
0.05800099419999998,0.9991592363545684
0.05900099409999998,0.9991300046249556
0.06000099399999998,0.999100273873962
0.06100099389999998,0.999070044135016
0.06200099379999998,0.9990393154421059
0.06300099369999998,0.9990080878297807
0.06400099359999999,0.9989763613331495
0.06500099349999999,0.9989441359878816
0.0660009934,0.9989114118302064
0.0670009933,0.9988781888969134
0.06800099320000001,0.9988444672253519
0.06900099310000002,0.9988102468534312
0.07000099300000003,0.9987755278196204
0.07100099290000003,0.9987403101629483
0.07200099280000004,0.9987045939230031
0.07300099270000004,0.998668379139933
0.07400099260000005,0.9986316658544453
0.07500099250000006,0.9985944541078068
0.07600099240000006,0.9985567439418436
0.07700099230000007,0.9985185353989409
0.07800099220000008,0.9984798285220432
0.07900099210000008,0.998440623354654
0.08000099200000009,0.9984009199408357
0.0810009919000001,0.9983607183252095
0.0820009918000001,0.9983200185529553
0.08300099170000011,0.9982788206698118
0.08400099160000012,0.9982371247220763
0.08500099150000012,0.9981949307566045
0.08600099140000013,0.9981522388208104
0.08700099130000014,0.9981090489626664
0.08800099120000014,0.998065361230703
0.08900099110000015,0.9980211756740087
0.09000099100000016,0.9979764923422302
0.09100099090000016,0.9979313112855718
0.09200099080000017,0.9978856325547958
0.09300099070000017,0.9978394562012219
0.09400099060000018,0.9977927822767277
0.09500099050000019,0.997745610833748
0.0960009904000002,0.997697941925275
0.0970009903000002,0.9976497756048579
0.09800099020000021,0.9976011119266034
0.09900099010000021,0.9975519509451749
0.10000099000000022,0.9975022927157928
0.10100098990000023,0.9974521372942344
0.10200098980000023,0.9974014847368335
0.10300098970000024,0.9973503351004804
0.10400098960000025,0.9972986884426219
0.10500098950000025,0.9972465448212611
0.10600098940000026,0.9971939042949572
0.10700098930000027,0.9971407669228257
0.10800098920000027,0.9970871327645378
0.10900098910000028,0.9970330018803204
0.11000098900000028,0.9969783743309564
0.11100098890000029,0.996923250177784
0.1120009888000003,0.9968676294826971
0.1130009887000003,0.9968115123081448
0.11400098860000031,0.9967548987171312
0.11500098850000032,0.9966977887732155
0.11600098840000032,0.996640182540512
0.11700098830000033,0.9965820800836896
0.11800098820000034,0.996523481467972
0.11900098810000034,0.9964643867591372
0.12000098800000035,0.9964047960235176
0.12100098790000036,0.9963447093280001
0.12200098780000036,0.9962841267400254
0.12300098770000037,0.9962230483275883
0.12400098760000038,0.9961614741592374
0.12500098750000038,0.9960994043040748
0.12600098740000037,0.9960368388317564
0.12700098730000037,0.9959737778124913
0.12800098720000036,0.9959102213170419
0.12900098710000035,0.9958461694167235
0.13000098700000035,0.9957816221834048
0.13100098690000034,0.9957165796895069
0.13200098680000033,0.9956510420080036
0.13300098670000032,0.9955850092124212
0.13400098660000032,0.9955184813768384
0.1350009865000003,0.9954514585758861
0.1360009864000003,0.9953839408847471
0.1370009863000003,0.9953159283791563
0.1380009862000003,0.9952474211354
0.13900098610000028,0.9951784192303164
0.14000098600000027,0.9951089227412947
0.14100098590000026,0.9950389317462757
0.14200098580000026,0.9949684463237511
0.14300098570000025,0.9948974665527636
0.14400098560000024,0.9948259925129065
0.14500098550000023,0.9947540242843238
0.14600098540000023,0.9946815619477098
0.14700098530000022,0.9946086055843093
0.1480009852000002,0.994535155275917
0.1490009851000002,0.9944612111048774
0.1500009850000002,0.9943867731540849
0.1510009849000002,0.9943118415069834
0.15200098480000018,0.9942364162475663
0.15300098470000018,0.9941604974603762
0.15400098460000017,0.9940840852305044
0.15500098450000016,0.9940071796435916
0.15600098440000015,0.9939297807858269
0.15700098430000015,0.9938518887439479
0.15800098420000014,0.9937735036052406
0.15900098410000013,0.9936946254575392
0.16000098400000012,0.9936152543892256
0.16100098390000012,0.9935353904892299
0.1620009838000001,0.9934550338470295
0.1630009837000001,0.9933741845526493
0.1640009836000001,0.9932928426966613
0.1650009835000001,0.9932110083701848
0.16600098340000008,0.9931286816648859
0.16700098330000007,0.9930458626729771
0.16800098320000006,0.9929625514872177
0.16900098310000006,0.9928787482009129
0.17000098300000005,0.9927944529079145
0.17100098290000004,0.9927096657026196
0.17200098280000004,0.9926243866799715
0.17300098270000003,0.9925386159354588
0.17400098260000002,0.9924523535651152
0.1750009825,0.9923655996655197
0.1760009824,0.9922783543337964
0.1770009823,0.9921906176676137
0.1780009822,0.9921023897651848
0.17900098209999998,0.992013670725267
0.18000098199999998,0.9919244606471618
0.18100098189999997,0.9918347596307144
0.18200098179999996,0.991744567776314
0.18300098169999995,0.9916538851848931
0.18400098159999995,0.9915627119579272
0.18500098149999994,0.9914710481974354
0.18600098139999993,0.9913788940059791
0.18700098129999992,0.9912862494866627
0.18800098119999992,0.9911931147431328
0.1890009810999999,0.9910994898795782
0.1900009809999999,0.9910053750007299
0.1910009808999999,0.9909107702118605
0.1920009807999999,0.990815675618784
0.19300098069999988,0.9907200913278561
0.19400098059999987,0.9906240174459732
0.19500098049999987,0.9905274540805729
0.19600098039999986,0.9904304013396332
0.19700098029999985,0.9903328593316728
0.19800098019999984,0.9902348281657505
0.19900098009999984,0.990136307951465
0.20000097999999983,0.990037298798955
0.20100097989999982,0.9899378008188984
0.2020009797999998,0.9898378141225127
0.2030009796999998,0.9897373388215543
0.2040009795999998,0.9896363750283187
0.2050009794999998,0.9895349228556396
0.20600097939999978,0.9894329824168895
0.20700097929999978,0.9893305538259787
0.20800097919999977,0.9892276371973556
0.20900097909999976,0.9891242326460062
0.21000097899999975,0.9890203402874541
0.21100097889999975,0.9889159602377599
0.21200097879999974,0.9888110926135211
0.21300097869999973,0.9887057375318722
0.21400097859999972,0.988599895110484
0.21500097849999972,0.9884935654675634
0.2160009783999997,0.9883867487218536
0.2170009782999997,0.9882794449926333
0.2180009781999997,0.9881716543997168
0.2190009780999997,0.9880633770634535
0.22000097799999968,0.987954613104728
0.22100097789999967,0.9878453626449596
0.22200097779999967,0.987735625806102
0.22300097769999966,0.9876254027106431
0.22400097759999965,0.987514693481605
0.22500097749999964,0.9874034982425435
0.22600097739999964,0.9872918171175477
0.22700097729999963,0.98717965023124
0.22800097719999962,0.9870669977087759
0.22900097709999961,0.9869538596758436
0.2300009769999996,0.9868402362586636
0.2310009768999996,0.9867261275839886
0.2320009767999996,0.9866115337791034
0.23300097669999958,0.9864964549718244
0.23400097659999958,0.9863808912904992
0.23500097649999957,0.986264842864007
0.23600097639999956,0.9861483098217573
0.23700097629999956,0.9860312922936906
0.23800097619999955,0.9859137904102776
0.23900097609999954,0.9857958043025191
0.24000097599999953,0.9856773341019457
0.24100097589999953,0.9855583799406176
0.24200097579999952,0.985438941951124
0.2430009756999995,0.9853190202665835
0.2440009755999995,0.9851986150206429
0.2450009754999995,0.9850777263474778
0.2460009753999995,0.984956354381792
0.24700097529999948,0.9848344992588168
0.24800097519999947,0.9847121611143116
0.24900097509999947,0.9845893400845626
0.25000097499999946,0.9844660363063834
0.25100097489999945,0.9843422499171143
0.25200097479999944,0.9842179810546219
0.25300097469999944,0.9840932298572991
0.25400097459999943,0.9839679964640647
0.2550009744999994,0.9838422810143633
0.2560009743999994,0.9837160836481645
0.2570009742999994,0.9835894045059632
0.2580009741999994,0.9834622437287789
0.2590009740999994,0.9833346014581557
0.2600009739999994,0.9832064778361616
0.2610009738999994,0.9830778730053888
0.26200097379999937,0.9829487871089531
0.26300097369999936,0.9828192202904932
0.26400097359999936,0.9826891726941711
0.26500097349999935,0.9825586444646714
0.26600097339999934,0.9824276357472014
0.26700097329999933,0.98229614668749
0.2680009731999993,0.9821641774317882
0.2690009730999993,0.9820317281268685
0.2700009729999993,0.9818987989200244
0.2710009728999993,0.9817653899590706
0.2720009727999993,0.9816315013923421
0.2730009726999993,0.9814971333686945
0.2740009725999993,0.9813622860375031
0.2750009724999993,0.981226959548663
0.27600097239999927,0.9810911540525886
0.27700097229999926,0.9809548697002135
0.27800097219999925,0.98081810664299
0.27900097209999924,0.9806808650328885
0.28000097199999924,0.9805431450223981
0.28100097189999923,0.9804049467645254
0.2820009717999992,0.9802662704127945
0.2830009716999992,0.9801271161212466
0.2840009715999992,0.9799874840444399
0.2850009714999992,0.9798473743374492
0.2860009713999992,0.9797067871558652
0.2870009712999992,0.979565722655795
0.2880009711999992,0.979424180993861
0.28900097109999917,0.9792821623272008
0.29000097099999916,0.9791396668134671
0.29100097089999916,0.9789966946108272
0.29200097079999915,0.9788532458779626
0.29300097069999914,0.9787093207740689
0.29400097059999913,0.9785649194588553
0.2950009704999991,0.9784200420925442
0.2960009703999991,0.9782746888358711
0.2970009702999991,0.9781288598500841
0.2980009701999991,0.9779825552969439
0.2990009700999991,0.9778357753387227
0.3000009699999991,0.9776885201382047
0.3010009698999991,0.9775407898586854
0.3020009697999991,0.9773925846639712
0.30300096969999907,0.9772439047183792
0.30400096959999906,0.9770947501867369
0.30500096949999905,0.9769451212343816
0.30600096939999905,0.9767950180271604
0.30700096929999904,0.9766444407314296
0.30800096919999903,0.9764933895140546
0.309000969099999,0.9763418645424093
0.310000968999999,0.9761898659843761
0.311000968899999,0.9760373940083449
0.312000968799999,0.9758844487832136
0.313000968699999,0.975731030478387
0.314000968599999,0.9755771392637773
0.315000968499999,0.9754227753098027
0.31600096839999897,0.9752679387873879
0.31700096829999896,0.9751126298679635
0.31800096819999896,0.9749568487234654
0.31900096809999895,0.9748005955263348
0.32000096799999894,0.9746438704495176
0.32100096789999893,0.9744866736664641
0.3220009677999989,0.9743290053511289
0.3230009676999989,0.9741708656779701
0.3240009675999989,0.9740122548219493
0.3250009674999989,0.9738531729585311
0.3260009673999989,0.9736936202636829
0.3270009672999989,0.973533596913874
0.3280009671999989,0.973373103086076
0.3290009670999989,0.973212138957762
0.33000096699999887,0.9730507047069062
0.33100096689999886,0.9728888005119838
0.33200096679999885,0.9727264265519703
0.33300096669999885,0.9725635830063415
0.33400096659999884,0.9724002700550729
0.33500096649999883,0.9722364878786394
0.3360009663999988,0.9720722366580147
0.3370009662999988,0.9719075165746714
0.3380009661999988,0.9717423278105805
0.3390009660999988,0.9715766705482104
0.3400009659999988,0.9714105449705276
0.3410009658999988,0.9712439512609954
0.3420009657999988,0.971076889603574
0.34300096569999877,0.9709093601827199
0.34400096559999876,0.9707413631833859
0.34500096549999876,0.9705728987910202
0.34600096539999875,0.9704039671915662
0.34700096529999874,0.9702345685714626
0.34800096519999874,0.9700647031176423
0.34900096509999873,0.9698943710175323
0.3500009649999987,0.9697235724590536
0.3510009648999987,0.9695523076306204
0.3520009647999987,0.96938057672114
0.3530009646999987,0.9692083799200121
0.3540009645999987,0.9690357174171288
0.3550009644999987,0.968862589402874
0.3560009643999987,0.9686889960681229
0.35700096429999867,0.968514937604242
0.35800096419999866,0.9683404142030883
0.35900096409999865,0.9681654260570091
0.36000096399999865,0.9679899733588415
0.36100096389999864,0.9678140563019123
0.36200096379999863,0.9676376750800373
0.3630009636999986,0.9674608298875208
0.3640009635999986,0.9672835209191557
0.3650009634999986,0.9671057483702227
0.3660009633999986,0.9669275124364899
0.3670009632999986,0.9667488133142127
0.3680009631999986,0.966569651200133
0.3690009630999986,0.9663900262914793
0.3700009629999986,0.9662099387859657
0.37100096289999857,0.966029388881792
0.37200096279999856,0.9658483767776431
0.37300096269999855,0.9656669026726885
0.37400096259999854,0.9654849667665821
0.37500096249999854,0.9653025692594618
0.37600096239999853,0.9651197103519487
0.3770009622999985,0.9649363902451471
0.3780009621999985,0.9647526091406441
0.3790009620999985,0.9645683672405089
0.3800009619999985,0.9643836647472926
0.3810009618999985,0.9641985018640279
0.3820009617999985,0.9640128787942281
0.3830009616999985,0.9638267957418877
0.38400096159999847,0.9636402529114808
0.38500096149999846,0.9634532505079618
0.38600096139999845,0.9632657887367642
0.38700096129999845,0.9630778678038003
0.38800096119999844,0.9628894879154615
0.38900096109999843,0.9627006492786166
0.3900009609999984,0.9625113521006128
0.3910009608999984,0.9623215965892739
0.3920009607999984,0.962131382952901
0.3930009606999984,0.9619407114002716
0.3940009605999984,0.961749582140639
0.3950009604999984,0.9615579953837322
0.3960009603999984,0.9613659513397556
0.3970009602999984,0.9611734502193878
0.39800096019999837,0.9609804922337822
0.39900096009999836,0.9607870775945658
0.40000095999999835,0.9605932065138393
0.40100095989999834,0.9603988792041761
0.40200095979999834,0.9602040958786224
0.40300095969999833,0.9600088567506966
0.4040009595999983,0.9598131620343886
0.4050009594999983,0.9596170119441598
0.4060009593999983,0.9594204066949426
0.4070009592999983,0.9592233465021394
0.4080009591999983,0.9590258315816229
0.4090009590999983,0.9588278621497354
0.4100009589999983,0.958629438423288
0.41100095889999827,0.9584305606195608
0.41200095879999826,0.958231228956302
0.41300095869999826,0.9580314436517277
0.41400095859999825,0.9578312049245211
0.41500095849999824,0.9576305129938326
0.41600095839999823,0.957429368079279
0.4170009582999982,0.9572277704009431
0.4180009581999982,0.9570257201793733
0.4190009580999982,0.956823217635583
0.4200009579999982,0.9566202629910505
0.4210009578999982,0.9564168564677183
0.4220009577999982,0.9562129982879927
0.4230009576999982,0.9560086886747432
0.4240009575999982,0.9558039278513024
0.42500095749999817,0.9555987160414653
0.42600095739999816,0.9553930534694888
0.42700095729999815,0.9551869403600914
0.42800095719999814,0.9549803769384528
0.42900095709999814,0.9547733634302132
0.43000095699999813,0.9545659000614731
0.4310009568999981,0.9543579870587926
0.4320009567999981,0.9541496246491912
0.4330009566999981,0.953940813060147
0.4340009565999981,0.9537315525195967
0.4350009564999981,0.9535218432559349
0.4360009563999981,0.9533116854980135
0.4370009562999981,0.9531010794751413
0.43800095619999807,0.9528900254170839
0.43900095609999806,0.9526785235540627
0.44000095599999806,0.9524665741167548
0.44100095589999805,0.9522541773362925
0.44200095579999804,0.9520413334442624
0.44300095569999803,0.9518280426727058
0.444000955599998,0.9516143052541174
0.445000955499998,0.9514001214214453
0.446000955399998,0.9511854914080902
0.447000955299998,0.9509704154479053
0.448000955199998,0.9507548937751957
0.449000955099998,0.9505389266247177
0.450000954999998,0.9503225142316787
0.451000954899998,0.9501056568317363
0.45200095479999797,0.9498883546609983
0.45300095469999796,0.9496706079560219
0.45400095459999795,0.9494524169538132
0.45500095449999794,0.949233781891827
0.45600095439999794,0.9490147030079663
0.45700095429999793,0.9487951805405812
0.4580009541999979,0.9485752147284693
0.4590009540999979,0.9483548058108747
0.4600009539999979,0.9481339540274878
0.4610009538999979,0.9479126596184443
0.4620009537999979,0.9476909228243254
0.4630009536999979,0.9474687438861571
0.4640009535999979,0.9472461230454092
0.46500095349999787,0.9470230605439957
0.46600095339999786,0.9467995566242734
0.46700095329999786,0.9465756115290421
0.46800095319999785,0.946351225501544
0.46900095309999784,0.9461263987854629
0.47000095299999783,0.945901131624924
0.4710009528999978,0.9456754242644931
0.4720009527999978,0.9454492769491768
0.4730009526999978,0.9452226899244209
0.4740009525999978,0.9449956634361111
0.4750009524999978,0.9447681977305716
0.4760009523999978,0.9445402930545652
0.4770009522999978,0.9443119496552923
0.4780009521999978,0.9440831677803909
0.47900095209999777,0.9438539476779358
0.48000095199999776,0.9436242895964382
0.48100095189999775,0.943394193784845
0.48200095179999775,0.9431636604925387
0.48300095169999774,0.9429326899693367
0.48400095159999773,0.9427012824654906
0.4850009514999977,0.942469438231686
0.4860009513999977,0.942237157519042
0.4870009512999977,0.9420044405791104
0.4880009511999977,0.9417712876638753
0.4890009510999977,0.941537699025753
0.4900009509999977,0.9413036749175909
0.4910009508999977,0.9410692155926674
0.49200095079999767,0.9408343213046914
0.49300095069999766,0.9405989923078012
0.49400095059999766,0.940363228856565
0.49500095049999765,0.9401270312059794
0.49600095039999764,0.9398903996114697
0.49700095029999763,0.9396533343288888
0.4980009501999976,0.9394158356145169
0.4990009500999976,0.9391779037250613
0.5000009499999977,0.9389395389176551
0.5010009498999977,0.9387007414498577
0.5020009497999977,0.9384615115796534
0.5030009496999976,0.9382218495654515
0.5040009495999976,0.9379817556660853
0.5050009494999976,0.9377412301408121
0.5060009493999976,0.9375002732493123
0.5070009492999976,0.9372588852516889
