# Time [s]: 0.00811743
# Columns: pos [m], vel [m/s], acc [m/s^2], mass [kg], dens [kg/m^3], pres [Pa], ene [J/kg], sml [m], id, neighbor, alpha, gradh, ...additional?
-0.508517 -1.76374 -75.0069 0.0025 0.233872 0.145815 1.56009 0.0213792 0 5 1 1.03592 
-0.499694 -0.99297 -92.524 0.0025 0.408366 0.284696 1.74453 0.0122439 1 5 1 0.982965 
-0.49465 -0.512534 -102.279 0.0025 0.613189 0.504465 2.05829 0.00815409 2 4 1 0.954514 
-0.491131 -0.207018 -101.074 0.0025 0.811875 0.748021 2.3037 0.00615858 3 4 1 0.965334 
-0.488367 0.0179877 -78.9247 0.0025 0.97608 0.969337 2.47995 0.00512253 4 4 1 0.998592 
-0.485979 0.0975135 -3.3034 0.0025 1.05591 1.08179 2.55807 0.00473524 5 3 1 1.00028 
-0.483631 0.0715918 23.2341 0.0025 1.04962 1.07079 2.55007 0.00476364 6 4 1 1.00068 
-0.481215 0.0317921 19.0563 0.0025 1.02305 1.0322 2.52296 0.00488733 7 4 1 0.998055 
-0.478743 0.00890235 8.50429 0.0025 1.00701 1.00953 2.50681 0.00496519 8 4 1 0.999138 
-0.476249 0.0014362 2.08032 0.0025 1.00132 1.00173 2.50124 0.0049934 9 4 1 0.999879 
-0.47375 7.52569e-05 0.25641 0.0025 1.00012 1.00014 2.5001 0.0049994 10 4 1 0.999994 
-0.47125 -1.31421e-05 -0.017795 0.0025 0.999995 0.999992 2.49999 0.00500002 11 5 1 1 
-0.46875 5.88598e-07 -0.00176451 0.0025 0.999999 0.999999 2.5 0.005 12 4 1 1 
-0.46625 4.72887e-07 0.000539541 0.0025 1 1 2.5 0.005 13 3 1 1 
-0.46375 5.94654e-08 0.000122868 0.0025 1 1 2.5 0.005 14 4 1 1 
-0.46125 1.54745e-11 6.23869e-06 0.0025 1 1 2.5 0.005 15 4 1 1 
-0.45875 -2.93646e-10 -9.45428e-07 0.0025 1 1 2.5 0.005 16 5 1 1 
-0.45625 3.79994e-11 3.00535e-08 0.0025 1 1 2.5 0.005 17 3 1 1 
-0.45375 5.88696e-12 1.45371e-08 0.0025 1 1 2.5 0.005 18 4 1 1 
-0.45125 -6.01494e-14 3.44926e-10 0.0025 1 1 2.5 0.005 19 4 1 1 
-0.44875 -1.66066e-14 -7.47491e-11 0.0025 1 1 2.5 0.005 20 5 1 1 
-0.44625 1.93993e-15 4.94538e-12 0.0025 1 1 2.5 0.005 21 4 1 1 
-0.44375 6.418e-17 2.27374e-13 0.0025 1 1 2.5 0.005 22 5 1 1 
-0.44125 1.26573e-47 4.48416e-44 0.0025 1 1 2.5 0.005 23 5 1 1 
-0.43875 0 0 0.0025 1 1 2.5 0.005 24 5 1 1 
-0.43625 0 0 0.0025 1 1 2.5 0.005 25 5 1 1 
-0.43375 0 0 0.0025 1 1 2.5 0.005 26 5 1 1 
-0.43125 0 0 0.0025 1 1 2.5 0.005 27 5 1 1 
-0.42875 0 0 0.0025 1 1 2.5 0.005 28 5 1 1 
-0.42625 0 0 0.0025 1 1 2.5 0.005 29 5 1 1 
-0.42375 0 0 0.0025 1 1 2.5 0.005 30 5 1 1 
-0.42125 0 0 0.0025 1 1 2.5 0.005 31 5 1 1 
-0.41875 0 0 0.0025 1 1 2.5 0.005 32 5 1 1 
-0.41625 0 0 0.0025 1 1 2.5 0.005 33 5 1 1 
-0.41375 0 0 0.0025 1 1 2.5 0.005 34 5 1 1 
-0.41125 0 0 0.0025 1 1 2.5 0.005 35 5 1 1 
-0.40875 0 0 0.0025 1 1 2.5 0.005 36 5 1 1 
-0.40625 0 0 0.0025 1 1 2.5 0.005 37 5 1 1 
-0.40375 0 0 0.0025 1 1 2.5 0.005 38 5 1 1 
-0.40125 0 0 0.0025 1 1 2.5 0.005 39 5 1 1 
-0.39875 0 0 0.0025 1 1 2.5 0.005 40 5 1 1 
-0.39625 0 0 0.0025 1 1 2.5 0.005 41 5 1 1 
-0.39375 0 0 0.0025 1 1 2.5 0.005 42 5 1 1 
-0.39125 0 0 0.0025 1 1 2.5 0.005 43 5 1 1 
-0.38875 0 0 0.0025 1 1 2.5 0.005 44 5 1 1 
-0.38625 0 0 0.0025 1 1 2.5 0.005 45 5 1 1 
-0.38375 0 0 0.0025 1 1 2.5 0.005 46 5 1 1 
-0.38125 0 0 0.0025 1 1 2.5 0.005 47 5 1 1 
-0.37875 0 0 0.0025 1 1 2.5 0.005 48 5 1 1 
-0.37625 0 0 0.0025 1 1 2.5 0.005 49 5 1 1 
-0.37375 0 0 0.0025 1 1 2.5 0.005 50 5 1 1 
-0.37125 0 0 0.0025 1 1 2.5 0.005 51 5 1 1 
-0.36875 0 0 0.0025 1 1 2.5 0.005 52 5 1 1 
-0.36625 0 0 0.0025 1 1 2.5 0.005 53 5 1 1 
-0.36375 0 0 0.0025 1 1 2.5 0.005 54 5 1 1 
-0.36125 0 0 0.0025 1 1 2.5 0.005 55 5 1 1 
-0.35875 0 0 0.0025 1 1 2.5 0.005 56 5 1 1 
-0.35625 0 0 0.0025 1 1 2.5 0.005 57 5 1 1 
-0.35375 0 0 0.0025 1 1 2.5 0.005 58 5 1 1 
-0.35125 0 0 0.0025 1 1 2.5 0.005 59 5 1 1 
-0.34875 0 0 0.0025 1 1 2.5 0.005 60 5 1 1 
-0.34625 0 0 0.0025 1 1 2.5 0.005 61 5 1 1 
-0.34375 0 0 0.0025 1 1 2.5 0.005 62 5 1 1 
-0.34125 0 0 0.0025 1 1 2.5 0.005 63 5 1 1 
-0.33875 0 0 0.0025 1 1 2.5 0.005 64 5 1 1 
-0.33625 0 0 0.0025 1 1 2.5 0.005 65 5 1 1 
-0.33375 0 0 0.0025 1 1 2.5 0.005 66 5 1 1 
-0.33125 0 0 0.0025 1 1 2.5 0.005 67 5 1 1 
-0.32875 0 0 0.0025 1 1 2.5 0.005 68 5 1 1 
-0.32625 0 0 0.0025 1 1 2.5 0.005 69 5 1 1 
-0.32375 0 0 0.0025 1 1 2.5 0.005 70 5 1 1 
-0.32125 0 0 0.0025 1 1 2.5 0.005 71 5 1 1 
-0.31875 0 0 0.0025 1 1 2.5 0.005 72 5 1 1 
-0.31625 0 0 0.0025 1 1 2.5 0.005 73 5 1 1 
-0.31375 0 0 0.0025 1 1 2.5 0.005 74 5 1 1 
-0.31125 0 0 0.0025 1 1 2.5 0.005 75 5 1 1 
-0.30875 0 0 0.0025 1 1 2.5 0.005 76 5 1 1 
-0.30625 0 0 0.0025 1 1 2.5 0.005 77 5 1 1 
-0.30375 0 0 0.0025 1 1 2.5 0.005 78 5 1 1 
-0.30125 0 0 0.0025 1 1 2.5 0.005 79 5 1 1 
-0.29875 0 0 0.0025 1 1 2.5 0.005 80 5 1 1 
-0.29625 0 0 0.0025 1 1 2.5 0.005 81 5 1 1 
-0.29375 0 0 0.0025 1 1 2.5 0.005 82 5 1 1 
-0.29125 0 0 0.0025 1 1 2.5 0.005 83 5 1 1 
-0.28875 0 0 0.0025 1 1 2.5 0.005 84 5 1 1 
-0.28625 0 0 0.0025 1 1 2.5 0.005 85 5 1 1 
-0.28375 0 0 0.0025 1 1 2.5 0.005 86 5 1 1 
-0.28125 0 0 0.0025 1 1 2.5 0.005 87 5 1 1 
-0.27875 0 0 0.0025 1 1 2.5 0.005 88 5 1 1 
-0.27625 0 0 0.0025 1 1 2.5 0.005 89 5 1 1 
-0.27375 0 0 0.0025 1 1 2.5 0.005 90 5 1 1 
-0.27125 0 0 0.0025 1 1 2.5 0.005 91 5 1 1 
-0.26875 0 0 0.0025 1 1 2.5 0.005 92 5 1 1 
-0.26625 0 0 0.0025 1 1 2.5 0.005 93 5 1 1 
-0.26375 0 0 0.0025 1 1 2.5 0.005 94 5 1 1 
-0.26125 0 0 0.0025 1 1 2.5 0.005 95 5 1 1 
-0.25875 0 0 0.0025 1 1 2.5 0.005 96 5 1 1 
-0.25625 0 0 0.0025 1 1 2.5 0.005 97 5 1 1 
-0.25375 0 0 0.0025 1 1 2.5 0.005 98 5 1 1 
-0.25125 0 0 0.0025 1 1 2.5 0.005 99 5 1 1 
-0.24875 0 0 0.0025 1 1 2.5 0.005 100 5 1 1 
-0.24625 0 0 0.0025 1 1 2.5 0.005 101 5 1 1 
-0.24375 0 0 0.0025 1 1 2.5 0.005 102 5 1 1 
-0.24125 0 0 0.0025 1 1 2.5 0.005 103 5 1 1 
-0.23875 0 0 0.0025 1 1 2.5 0.005 104 5 1 1 
-0.23625 0 0 0.0025 1 1 2.5 0.005 105 5 1 1 
-0.23375 0 0 0.0025 1 1 2.5 0.005 106 5 1 1 
-0.23125 0 0 0.0025 1 1 2.5 0.005 107 5 1 1 
-0.22875 0 0 0.0025 1 1 2.5 0.005 108 5 1 1 
-0.22625 0 0 0.0025 1 1 2.5 0.005 109 5 1 1 
-0.22375 0 0 0.0025 1 1 2.5 0.005 110 5 1 1 
-0.22125 0 0 0.0025 1 1 2.5 0.005 111 5 1 1 
-0.21875 0 0 0.0025 1 1 2.5 0.005 112 5 1 1 
-0.21625 0 0 0.0025 1 1 2.5 0.005 113 5 1 1 
-0.21375 0 0 0.0025 1 1 2.5 0.005 114 5 1 1 
-0.21125 0 0 0.0025 1 1 2.5 0.005 115 5 1 1 
-0.20875 0 0 0.0025 1 1 2.5 0.005 116 5 1 1 
-0.20625 0 0 0.0025 1 1 2.5 0.005 117 5 1 1 
-0.20375 0 0 0.0025 1 1 2.5 0.005 118 5 1 1 
-0.20125 0 0 0.0025 1 1 2.5 0.005 119 5 1 1 
-0.19875 0 0 0.0025 1 1 2.5 0.005 120 5 1 1 
-0.19625 0 0 0.0025 1 1 2.5 0.005 121 5 1 1 
-0.19375 0 0 0.0025 1 1 2.5 0.005 122 5 1 1 
-0.19125 0 0 0.0025 1 1 2.5 0.005 123 5 1 1 
-0.18875 0 0 0.0025 1 1 2.5 0.005 124 5 1 1 
-0.18625 0 0 0.0025 1 1 2.5 0.005 125 5 1 1 
-0.18375 0 0 0.0025 1 1 2.5 0.005 126 5 1 1 
-0.18125 0 0 0.0025 1 1 2.5 0.005 127 5 1 1 
-0.17875 0 0 0.0025 1 1 2.5 0.005 128 5 1 1 
-0.17625 0 0 0.0025 1 1 2.5 0.005 129 5 1 1 
-0.17375 0 0 0.0025 1 1 2.5 0.005 130 5 1 1 
-0.17125 0 0 0.0025 1 1 2.5 0.005 131 5 1 1 
-0.16875 0 0 0.0025 1 1 2.5 0.005 132 5 1 1 
-0.16625 0 0 0.0025 1 1 2.5 0.005 133 5 1 1 
-0.16375 0 0 0.0025 1 1 2.5 0.005 134 5 1 1 
-0.16125 0 0 0.0025 1 1 2.5 0.005 135 5 1 1 
-0.15875 0 0 0.0025 1 1 2.5 0.005 136 5 1 1 
-0.15625 0 0 0.0025 1 1 2.5 0.005 137 5 1 1 
-0.15375 0 0 0.0025 1 1 2.5 0.005 138 5 1 1 
-0.15125 0 0 0.0025 1 1 2.5 0.005 139 5 1 1 
-0.14875 0 0 0.0025 1 1 2.5 0.005 140 5 1 1 
-0.14625 0 0 0.0025 1 1 2.5 0.005 141 5 1 1 
-0.14375 0 0 0.0025 1 1 2.5 0.005 142 5 1 1 
-0.14125 0 0 0.0025 1 1 2.5 0.005 143 5 1 1 
-0.13875 0 0 0.0025 1 1 2.5 0.005 144 5 1 1 
-0.13625 0 0 0.0025 1 1 2.5 0.005 145 5 1 1 
-0.13375 0 0 0.0025 1 1 2.5 0.005 146 5 1 1 
-0.13125 0 0 0.0025 1 1 2.5 0.005 147 5 1 1 
-0.12875 0 0 0.0025 1 1 2.5 0.005 148 5 1 1 
-0.12625 0 0 0.0025 1 1 2.5 0.005 149 5 1 1 
-0.12375 0 0 0.0025 1 1 2.5 0.005 150 5 1 1 
-0.12125 0 0 0.0025 1 1 2.5 0.005 151 5 1 1 
-0.11875 0 0 0.0025 1 1 2.5 0.005 152 5 1 1 
-0.11625 0 0 0.0025 1 1 2.5 0.005 153 5 1 1 
-0.11375 0 0 0.0025 1 1 2.5 0.005 154 5 1 1 
-0.11125 0 0 0.0025 1 1 2.5 0.005 155 5 1 1 
-0.10875 0 0 0.0025 1 1 2.5 0.005 156 5 1 1 
-0.10625 0 0 0.0025 1 1 2.5 0.005 157 5 1 1 
-0.10375 0 0 0.0025 1 1 2.5 0.005 158 5 1 1 
-0.10125 0 0 0.0025 1 1 2.5 0.005 159 5 1 1 
-0.09875 0 0 0.0025 1 1 2.5 0.005 160 5 1 1 
-0.09625 0 0 0.0025 1 1 2.5 0.005 161 5 1 1 
-0.09375 0 0 0.0025 1 1 2.5 0.005 162 5 1 1 
-0.09125 0 0 0.0025 1 1 2.5 0.005 163 5 1 1 
-0.08875 0 0 0.0025 1 1 2.5 0.005 164 5 1 1 
-0.08625 0 0 0.0025 1 1 2.5 0.005 165 5 1 1 
-0.08375 0 0 0.0025 1 1 2.5 0.005 166 5 1 1 
-0.08125 0 0 0.0025 1 1 2.5 0.005 167 5 1 1 
-0.07875 0 0 0.0025 1 1 2.5 0.005 168 5 1 1 
-0.07625 0 0 0.0025 1 1 2.5 0.005 169 5 1 1 
-0.07375 0 0 0.0025 1 1 2.5 0.005 170 5 1 1 
-0.07125 0 0 0.0025 1 1 2.5 0.005 171 5 1 1 
-0.06875 0 0 0.0025 1 1 2.5 0.005 172 5 1 1 
-0.06625 0 0 0.0025 1 1 2.5 0.005 173 5 1 1 
-0.06375 0 0 0.0025 1 1 2.5 0.005 174 5 1 1 
-0.06125 0 0 0.0025 1 1 2.5 0.005 175 5 1 1 
-0.05875 0 0 0.0025 1 1 2.5 0.005 176 5 1 1 
-0.05625 0 0 0.0025 1 1 2.5 0.005 177 5 1 1 
-0.05375 0 0 0.0025 1 1 2.5 0.005 178 5 1 1 
-0.05125 0 0 0.0025 1 1 2.5 0.005 179 5 1 1 
-0.04875 0 0 0.0025 1 1 2.5 0.005 180 5 1 1 
-0.04625 0 0 0.0025 1 1 2.5 0.005 181 5 1 1 
-0.04375 0 0 0.0025 1 1 2.5 0.005 182 5 1 1 
-0.04125 -3.14793e-47 -2.24208e-44 0.0025 1 1 2.5 0.005 183 5 1 1 
-0.03875 -1.27871e-16 -1.13687e-13 0.0025 1 1 2.5 0.005 184 5 1 1 
-0.03625 -3.78268e-16 -1.13687e-13 0.0025 1 1 2.5 0.005 185 5 1 1 
-0.03375 -2.2624e-15 -1.13687e-13 0.0025 1 1 2.5 0.005 186 4 1 1 
-0.03125 5.44422e-16 6.31089e-28 0.0025 1 1 2.5 0.005 187 3 1 1 
-0.02875 1.8647e-16 1.13687e-13 0.0025 1 1 2.5 0.005 188 3 1 1 
-0.02625 4.8247e-17 -5.68434e-14 0.0025 1 1 2.5 0.005 189 3 1 1 
-0.02375 -1.12281e-16 5.68434e-14 0.0025 1 1 2.5 0.005 190 3 1 1 
-0.02125 -2.33993e-16 -1.7053e-13 0.0025 1 1 2.5 0.005 191 3 1 1 
-0.01875 -4.32865e-16 5.68434e-14 0.0025 1 1 2.5 0.005 192 3 1 1 
-0.01625 1.72744e-15 1.7053e-13 0.0025 1 1 2.5 0.005 193 4 1 1 
-0.01375 4.04113e-16 5.68434e-14 0.0025 1 1 2.5 0.005 194 4 1 1 
-0.01125 6.42941e-17 -7.88861e-29 0.0025 1 1 2.5 0.005 195 4 1 1 
-0.00875 -4.77694e-16 -8.87469e-29 0.0025 1 1 2.5 0.005 196 3 1 1 
-0.00625 -4.10816e-16 3.41061e-13 0.0025 1 1 2.5 0.005 197 4 1 1 
-0.00375 3.06378e-17 -3.41061e-13 0.0025 1 1 2.5 0.005 198 5 1 1 
-0.00125 -6.48967e-17 -1.13687e-13 0.0025 1 1 2.5 0.005 199 4 1 1 
0.00125 6.56527e-17 9.86076e-30 0.0025 1 1 2.5 0.005 200 4 1 1 
0.00375 2.84931e-17 7.88861e-29 0.0025 1 1 2.5 0.005 201 4 1 1 
0.00625 7.01951e-16 1.13687e-13 0.0025 1 1 2.5 0.005 202 4 1 1 
0.00875 1.58125e-16 0 0.0025 1 1 2.5 0.005 203 3 1 1 
0.01125 -9.57471e-17 0 0.0025 1 1 2.5 0.005 204 3 1 1 
0.01375 -4.04113e-16 -5.68434e-14 0.0025 1 1 2.5 0.005 205 4 1 1 
0.01625 -1.72744e-15 -1.7053e-13 0.0025 1 1 2.5 0.005 206 4 1 1 
0.01875 4.64957e-16 5.68434e-14 0.0025 1 1 2.5 0.005 207 3 1 1 
0.02125 1.86367e-16 2.46519e-28 0.0025 1 1 2.5 0.005 208 3 1 1 
0.02375 0 0 0.0025 1 1 2.5 0.005 209 3 1 1 
0.02625 -1.70591e-16 5.68434e-14 0.0025 1 1 2.5 0.005 210 3 1 1 
0.02875 -4.80734e-16 -1.13687e-13 0.0025 1 1 2.5 0.005 211 3 1 1 
0.03125 2.2624e-15 1.13687e-13 0.0025 1 1 2.5 0.005 212 4 1 1 
0.03375 3.78268e-16 1.13687e-13 0.0025 1 1 2.5 0.005 213 5 1 1 
0.03625 1.27871e-16 1.13687e-13 0.0025 1 1 2.5 0.005 214 5 1 1 
0.03875 3.14793e-47 2.24208e-44 0.0025 1 1 2.5 0.005 215 5 1 1 
0.04125 0 0 0.0025 1 1 2.5 0.005 216 5 1 1 
0.04375 0 0 0.0025 1 1 2.5 0.005 217 5 1 1 
0.04625 0 0 0.0025 1 1 2.5 0.005 218 5 1 1 
0.04875 0 0 0.0025 1 1 2.5 0.005 219 5 1 1 
0.05125 0 0 0.0025 1 1 2.5 0.005 220 5 1 1 
0.05375 0 0 0.0025 1 1 2.5 0.005 221 5 1 1 
0.05625 0 0 0.0025 1 1 2.5 0.005 222 5 1 1 
0.05875 0 0 0.0025 1 1 2.5 0.005 223 5 1 1 
0.06125 0 0 0.0025 1 1 2.5 0.005 224 5 1 1 
0.06375 0 0 0.0025 1 1 2.5 0.005 225 5 1 1 
0.06625 0 0 0.0025 1 1 2.5 0.005 226 5 1 1 
0.06875 0 0 0.0025 1 1 2.5 0.005 227 5 1 1 
0.07125 0 0 0.0025 1 1 2.5 0.005 228 5 1 1 
0.07375 0 0 0.0025 1 1 2.5 0.005 229 5 1 1 
0.07625 0 0 0.0025 1 1 2.5 0.005 230 5 1 1 
0.07875 0 0 0.0025 1 1 2.5 0.005 231 5 1 1 
0.08125 0 0 0.0025 1 1 2.5 0.005 232 5 1 1 
0.08375 0 0 0.0025 1 1 2.5 0.005 233 5 1 1 
0.08625 0 0 0.0025 1 1 2.5 0.005 234 5 1 1 
0.08875 0 0 0.0025 1 1 2.5 0.005 235 5 1 1 
0.09125 0 0 0.0025 1 1 2.5 0.005 236 5 1 1 
0.09375 0 0 0.0025 1 1 2.5 0.005 237 5 1 1 
0.09625 0 0 0.0025 1 1 2.5 0.005 238 5 1 1 
0.09875 0 0 0.0025 1 1 2.5 0.005 239 5 1 1 
0.10125 0 0 0.0025 1 1 2.5 0.005 240 5 1 1 
0.10375 0 0 0.0025 1 1 2.5 0.005 241 5 1 1 
0.10625 0 0 0.0025 1 1 2.5 0.005 242 5 1 1 
0.10875 -3.16432e-48 -1.12104e-44 0.0025 1 1 2.5 0.005 243 5 1 1 
0.11125 -1.6045e-17 -5.68434e-14 0.0025 1 1 2.5 0.005 244 5 1 1 
0.11375 -2.71681e-16 -1.7053e-13 0.0025 1 1 2.5 0.005 245 5 1 1 
0.11625 -8.76435e-16 -2.84217e-13 0.0025 1 1 2.5 0.005 246 5 1 1 
0.11875 -2.58962e-15 -3.41061e-13 0.0025 1 1 2.5 0.005 247 5 1 1 
0.12125 -2.71848e-15 -7.14905e-27 0.0025 1 1 2.5 0.005 248 5 1 1 
0.12375 -1.11369e-14 3.97904e-13 0.0025 1 1 2.5 0.005 249 4 1 1 
0.12625 1.11369e-14 -3.97904e-13 0.0025 1 1 2.5 0.005 250 4 1 1 
0.12875 2.71848e-15 7.14905e-27 0.0025 1 1 2.5 0.005 251 5 1 1 
0.13125 2.58962e-15 3.41061e-13 0.0025 1 1 2.5 0.005 252 5 1 1 
0.13375 8.76435e-16 2.84217e-13 0.0025 1 1 2.5 0.005 253 5 1 1 
0.13625 2.71681e-16 1.7053e-13 0.0025 1 1 2.5 0.005 254 5 1 1 
0.13875 1.6045e-17 5.68434e-14 0.0025 1 1 2.5 0.005 255 5 1 1 
0.14125 3.16432e-48 1.12104e-44 0.0025 1 1 2.5 0.005 256 5 1 1 
0.14375 0 0 0.0025 1 1 2.5 0.005 257 5 1 1 
0.14625 0 0 0.0025 1 1 2.5 0.005 258 5 1 1 
0.14875 0 0 0.0025 1 1 2.5 0.005 259 5 1 1 
0.15125 0 0 0.0025 1 1 2.5 0.005 260 5 1 1 
0.15375 0 0 0.0025 1 1 2.5 0.005 261 5 1 1 
0.15625 0 0 0.0025 1 1 2.5 0.005 262 5 1 1 
0.15875 0 0 0.0025 1 1 2.5 0.005 263 5 1 1 
0.16125 0 0 0.0025 1 1 2.5 0.005 264 5 1 1 
0.16375 0 0 0.0025 1 1 2.5 0.005 265 5 1 1 
0.16625 0 0 0.0025 1 1 2.5 0.005 266 5 1 1 
0.16875 0 0 0.0025 1 1 2.5 0.005 267 5 1 1 
0.17125 0 0 0.0025 1 1 2.5 0.005 268 5 1 1 
0.17375 0 0 0.0025 1 1 2.5 0.005 269 5 1 1 
0.17625 0 0 0.0025 1 1 2.5 0.005 270 5 1 1 
0.17875 0 0 0.0025 1 1 2.5 0.005 271 5 1 1 
0.18125 0 0 0.0025 1 1 2.5 0.005 272 5 1 1 
0.18375 0 0 0.0025 1 1 2.5 0.005 273 5 1 1 
0.18625 0 0 0.0025 1 1 2.5 0.005 274 5 1 1 
0.18875 0 0 0.0025 1 1 2.5 0.005 275 5 1 1 
0.19125 0 0 0.0025 1 1 2.5 0.005 276 5 1 1 
0.19375 0 0 0.0025 1 1 2.5 0.005 277 5 1 1 
0.19625 0 0 0.0025 1 1 2.5 0.005 278 5 1 1 
0.19875 0 0 0.0025 1 1 2.5 0.005 279 5 1 1 
0.20125 0 0 0.0025 1 1 2.5 0.005 280 5 1 1 
0.20375 0 0 0.0025 1 1 2.5 0.005 281 5 1 1 
0.20625 0 0 0.0025 1 1 2.5 0.005 282 5 1 1 
0.20875 0 0 0.0025 1 1 2.5 0.005 283 5 1 1 
0.21125 0 0 0.0025 1 1 2.5 0.005 284 5 1 1 
0.21375 0 0 0.0025 1 1 2.5 0.005 285 5 1 1 
0.21625 0 0 0.0025 1 1 2.5 0.005 286 5 1 1 
0.21875 0 0 0.0025 1 1 2.5 0.005 287 5 1 1 
0.22125 0 0 0.0025 1 1 2.5 0.005 288 5 1 1 
0.22375 0 0 0.0025 1 1 2.5 0.005 289 5 1 1 
0.22625 0 0 0.0025 1 1 2.5 0.005 290 5 1 1 
0.22875 0 0 0.0025 1 1 2.5 0.005 291 5 1 1 
0.23125 0 0 0.0025 1 1 2.5 0.005 292 5 1 1 
0.23375 -2.83294e-47 -3.36312e-44 0.0025 1 1 2.5 0.005 293 5 1 1 
0.23625 -1.11557e-16 -5.68434e-14 0.0025 1 1 2.5 0.005 294 5 1 1 
0.23875 -6.86027e-16 -3.97904e-13 0.0025 1 1 2.5 0.005 295 5 1 1 
0.24125 -2.29875e-15 -7.95808e-13 0.0025 1 1 2.5 0.005 296 5 1 1 
0.24375 -5.4762e-15 -8.52651e-13 0.0025 1 1 2.5 0.005 297 5 1 1 
0.24625 -5.70675e-15 2.84217e-13 0.0025 1 1 2.5 0.005 298 5 1 1 
0.24875 -2.22919e-14 5.11591e-13 0.0025 1 1 2.5 0.005 299 3 1 1 
0.25125 2.22919e-14 -5.11591e-13 0.0025 1 1 2.5 0.005 300 3 1 1 
0.25375 5.70675e-15 -2.84217e-13 0.0025 1 1 2.5 0.005 301 5 1 1 
0.25625 5.4762e-15 8.52651e-13 0.0025 1 1 2.5 0.005 302 5 1 1 
0.25875 2.29875e-15 7.95808e-13 0.0025 1 1 2.5 0.005 303 5 1 1 
0.26125 6.86027e-16 3.97904e-13 0.0025 1 1 2.5 0.005 304 5 1 1 
0.26375 1.11557e-16 5.68434e-14 0.0025 1 1 2.5 0.005 305 5 1 1 
0.26625 2.83294e-47 3.36312e-44 0.0025 1 1 2.5 0.005 306 5 1 1 
0.26875 0 0 0.0025 1 1 2.5 0.005 307 5 1 1 
0.27125 0 0 0.0025 1 1 2.5 0.005 308 5 1 1 
0.27375 0 0 0.0025 1 1 2.5 0.005 309 5 1 1 
0.27625 0 0 0.0025 1 1 2.5 0.005 310 5 1 1 
0.27875 0 0 0.0025 1 1 2.5 0.005 311 5 1 1 
0.28125 0 0 0.0025 1 1 2.5 0.005 312 5 1 1 
0.28375 0 0 0.0025 1 1 2.5 0.005 313 5 1 1 
0.28625 0 0 0.0025 1 1 2.5 0.005 314 5 1 1 
0.28875 0 0 0.0025 1 1 2.5 0.005 315 5 1 1 
0.29125 0 0 0.0025 1 1 2.5 0.005 316 5 1 1 
0.29375 0 0 0.0025 1 1 2.5 0.005 317 5 1 1 
0.29625 0 0 0.0025 1 1 2.5 0.005 318 5 1 1 
0.29875 0 0 0.0025 1 1 2.5 0.005 319 5 1 1 
0.30125 0 0 0.0025 1 1 2.5 0.005 320 5 1 1 
0.30375 0 0 0.0025 1 1 2.5 0.005 321 5 1 1 
0.30625 0 0 0.0025 1 1 2.5 0.005 322 5 1 1 
0.30875 0 0 0.0025 1 1 2.5 0.005 323 5 1 1 
0.31125 0 0 0.0025 1 1 2.5 0.005 324 5 1 1 
0.31375 0 0 0.0025 1 1 2.5 0.005 325 5 1 1 
0.31625 0 0 0.0025 1 1 2.5 0.005 326 5 1 1 
0.31875 0 0 0.0025 1 1 2.5 0.005 327 5 1 1 
0.32125 0 0 0.0025 1 1 2.5 0.005 328 5 1 1 
0.32375 0 0 0.0025 1 1 2.5 0.005 329 5 1 1 
0.32625 0 0 0.0025 1 1 2.5 0.005 330 5 1 1 
0.32875 0 0 0.0025 1 1 2.5 0.005 331 5 1 1 
0.33125 0 0 0.0025 1 1 2.5 0.005 332 5 1 1 
0.33375 0 0 0.0025 1 1 2.5 0.005 333 5 1 1 
0.33625 0 0 0.0025 1 1 2.5 0.005 334 5 1 1 
0.33875 0 0 0.0025 1 1 2.5 0.005 335 5 1 1 
0.34125 0 0 0.0025 1 1 2.5 0.005 336 5 1 1 
0.34375 0 0 0.0025 1 1 2.5 0.005 337 5 1 1 
0.34625 0 0 0.0025 1 1 2.5 0.005 338 5 1 1 
0.34875 0 0 0.0025 1 1 2.5 0.005 339 5 1 1 
0.35125 0 0 0.0025 1 1 2.5 0.005 340 5 1 1 
0.35375 0 0 0.0025 1 1 2.5 0.005 341 5 1 1 
0.35625 0 0 0.0025 1 1 2.5 0.005 342 5 1 1 
0.35875 0 0 0.0025 1 1 2.5 0.005 343 5 1 1 
0.36125 0 0 0.0025 1 1 2.5 0.005 344 5 1 1 
0.36375 0 0 0.0025 1 1 2.5 0.005 345 5 1 1 
0.36625 0 0 0.0025 1 1 2.5 0.005 346 5 1 1 
0.36875 0 0 0.0025 1 1 2.5 0.005 347 5 1 1 
0.37125 0 0 0.0025 1 1 2.5 0.005 348 5 1 1 
0.37375 0 0 0.0025 1 1 2.5 0.005 349 5 1 1 
0.37625 0 0 0.0025 1 1 2.5 0.005 350 5 1 1 
0.37875 0 0 0.0025 1 1 2.5 0.005 351 5 1 1 
0.38125 0 0 0.0025 1 1 2.5 0.005 352 5 1 1 
0.38375 0 0 0.0025 1 1 2.5 0.005 353 5 1 1 
0.38625 0 0 0.0025 1 1 2.5 0.005 354 5 1 1 
0.38875 0 0 0.0025 1 1 2.5 0.005 355 5 1 1 
0.39125 0 0 0.0025 1 1 2.5 0.005 356 5 1 1 
0.39375 0 0 0.0025 1 1 2.5 0.005 357 5 1 1 
0.39625 0 0 0.0025 1 1 2.5 0.005 358 5 1 1 
0.39875 0 0 0.0025 1 1 2.5 0.005 359 5 1 1 
0.40125 0 0 0.0025 1 1 2.5 0.005 360 5 1 1 
0.40375 0 0 0.0025 1 1 2.5 0.005 361 5 1 1 
0.40625 0 0 0.0025 1 1 2.5 0.005 362 5 1 1 
0.40875 0 0 0.0025 1 1 2.5 0.005 363 5 1 1 
0.41125 0 0 0.0025 1 1 2.5 0.005 364 5 1 1 
0.41375 0 0 0.0025 1 1 2.5 0.005 365 5 1 1 
0.41625 0 0 0.0025 1 1 2.5 0.005 366 5 1 1 
0.41875 0 0 0.0025 1 1 2.5 0.005 367 5 1 1 
0.42125 0 0 0.0025 1 1 2.5 0.005 368 5 1 1 
0.42375 0 0 0.0025 1 1 2.5 0.005 369 5 1 1 
0.42625 0 0 0.0025 1 1 2.5 0.005 370 5 1 1 
0.42875 0 0 0.0025 1 1 2.5 0.005 371 5 1 1 
0.43125 0 0 0.0025 1 1 2.5 0.005 372 5 1 1 
0.43375 0 0 0.0025 1 1 2.5 0.005 373 5 1 1 
0.43625 0 0 0.0025 1 1 2.5 0.005 374 5 1 1 
0.43875 0 0 0.0025 1 1 2.5 0.005 375 5 1 1 
0.44125 -1.26573e-47 -4.48416e-44 0.0025 1 1 2.5 0.005 376 5 1 1 
0.44375 -6.418e-17 -2.27374e-13 0.0025 1 1 2.5 0.005 377 5 1 1 
0.44625 -1.92389e-15 -4.88853e-12 0.0025 1 1 2.5 0.005 378 4 1 1 
0.44875 1.935e-14 8.40146e-11 0.0025 1 1 2.5 0.005 379 5 1 1 
0.45125 2.51303e-14 -5.35863e-10 0.0025 1 1 2.5 0.005 380 4 1 1 
0.45375 -6.60308e-12 -1.56064e-08 0.0025 1 1 2.5 0.005 381 3 1 1 
0.45625 -3.5372e-11 -1.58055e-08 0.0025 1 1 2.5 0.005 382 4 1 1 
0.45875 3.3482e-10 9.78898e-07 0.0025 1 1 2.5 0.005 383 5 1 1 
0.46125 -1.00426e-09 -8.41978e-06 0.0025 1 1 2.5 0.005 384 4 1 1 
0.46375 -6.25923e-08 -0.000120076 0.0025 1 1 2.5 0.005 385 4 1 1 
0.46625 -4.20876e-07 -0.000403964 0.0025 1 1 2.5 0.005 386 3 1 1 
0.46875 -7.43557e-08 0.00247913 0.0025 0.999999 0.999999 2.5 0.005 387 5 1 1 
0.47125 9.94138e-06 0.00427315 0.0025 0.999999 0.999997 2.5 0.005 388 4 1 1 
0.47375 -0.000107394 -0.276839 0.0025 1.00014 1.00017 2.50012 0.00499932 389 4 1 0.999995 
0.476249 -0.00142945 -1.92029 0.0025 1.00126 1.00166 2.50119 0.0049937 390 4 1 0.999909 
0.478744 -0.00798852 -7.15609 0.0025 1.0062 1.00846 2.50604 0.00496918 391 4 1 0.999399 
