# Time [s]: 0.0340111
# Columns: pos [m], vel [m/s], acc [m/s^2], mass [kg], dens [kg/m^3], pres [Pa], ene [J/kg], sml [m], id, neighbor, alpha, gradh, ...additional?
-0.56791 -2.61167 -16.1101 0.0025 0.0773321 0.0309964 1.00212 0.0646562 0 5 1 1.0441 
-0.541287 -1.97309 -18.9074 0.0025 0.134063 0.059914 1.11734 0.037296 1 5 1 0.978647 
-0.525891 -1.60755 -20.3872 0.0025 0.200346 0.105432 1.3157 0.0249569 2 4 1 0.948782 
-0.515088 -1.35315 -21.4304 0.0025 0.267646 0.158158 1.4774 0.0186814 3 4 1 0.952434 
-0.50674 -1.15671 -22.454 0.0025 0.333086 0.214757 1.61197 0.0150111 4 4 1 0.960768 
-0.499868 -0.99405 -23.376 0.0025 0.39567 0.273257 1.72666 0.0126368 5 4 1 0.968197 
-0.493992 -0.853793 -24.363 0.0025 0.456355 0.333649 1.82792 0.0109564 6 4 1 0.974201 
-0.488845 -0.729767 -25.0159 0.0025 0.515607 0.395804 1.91924 0.00969731 7 4 1 0.978827 
-0.484252 -0.619012 -25.5707 0.0025 0.573474 0.45933 2.00253 0.0087188 8 4 1 0.982518 
-0.480097 -0.519322 -25.8482 0.0025 0.629941 0.523844 2.07907 0.00793725 9 4 1 0.985457 
-0.476294 -0.428627 -25.9766 0.0025 0.684898 0.588895 2.1497 0.00730036 10 4 1 0.987735 
-0.472782 -0.345806 -26.2023 0.0025 0.73846 0.654334 2.21533 0.00677085 11 4 1 0.989509 
-0.469512 -0.269254 -26.6409 0.0025 0.790838 0.720213 2.27684 0.00632241 12 4 1 0.991255 
-0.466451 -0.198055 -25.9322 0.0025 0.841403 0.785548 2.33399 0.00594245 13 4 1 0.993488 
-0.463564 -0.136898 -21.7208 0.0025 0.887581 0.846446 2.38422 0.00563329 14 4 1 0.994256 
-0.460814 -0.085634 -23.3379 0.0025 0.931319 0.905065 2.43025 0.00536873 15 4 1 0.992175 
-0.458191 -0.0201344 -37.0834 0.0025 0.983417 0.977212 2.4842 0.00508431 16 4 1 0.99457 
-0.455724 0.0514691 -26.0008 0.0025 1.03456 1.04985 2.53556 0.00483298 17 4 1 0.999988 
-0.453356 0.0728193 0.160085 0.0025 1.05633 1.08059 2.55637 0.00473337 18 3 1 1 
-0.45099 0.0637198 6.69084 0.0025 1.05056 1.07182 2.55035 0.00475936 19 4 1 1.00002 
-0.448597 0.0476294 8.56849 0.0025 1.0371 1.05245 2.53699 0.00482114 20 4 1 0.99955 
-0.446169 0.0308798 8.10753 0.0025 1.02368 1.03329 2.5236 0.00488435 21 4 1 0.999492 
-0.443712 0.0173426 6.01474 0.0025 1.01319 1.01844 2.51312 0.00493489 22 4 1 0.99966 
-0.441234 0.00849197 3.64516 0.0025 1.00645 1.00897 2.50639 0.00496794 23 4 1 0.999849 
-0.438744 0.0036661 1.86415 0.0025 1.00279 1.00386 2.50275 0.00498607 24 4 1 0.999953 
-0.436248 0.00140808 0.827047 0.0025 1.00108 1.00148 2.50106 0.00499461 25 4 1 0.999989 
-0.433749 0.000482204 0.323228 0.0025 1.00037 1.00051 2.50036 0.00499814 26 4 1 0.999998 
-0.43125 0.000146418 0.111599 0.0025 1.00011 1.00016 2.50011 0.00499943 27 4 1 1 
-0.42875 3.88973e-05 0.0337984 0.0025 1.00003 1.00004 2.50003 0.00499985 28 4 1 1 
-0.42625 8.829e-06 0.00883183 0.0025 1.00001 1.00001 2.50001 0.00499996 29 4 1 1 
-0.42375 1.63922e-06 0.00193123 0.0025 1 1 2.5 0.00499999 30 4 1 1 
-0.42125 2.26204e-07 0.000331951 0.0025 1 1 2.5 0.005 31 4 1 1 
-0.41875 1.68352e-08 3.78096e-05 0.0025 1 1 2.5 0.005 32 4 1 1 
-0.41625 -7.05521e-10 1.62675e-07 0.0025 1 1 2.5 0.005 33 4 1 1 
-0.41375 1.54432e-10 -3.13731e-07 0.0025 1 1 2.5 0.005 34 5 1 1 
-0.41125 1.45847e-10 7.74136e-08 0.0025 1 1 2.5 0.005 35 3 1 1 
-0.40875 4.07132e-11 4.13349e-08 0.0025 1 1 2.5 0.005 36 4 1 1 
-0.40625 6.60741e-12 9.58482e-09 0.0025 1 1 2.5 0.005 37 4 1 1 
-0.40375 4.99627e-13 1.19587e-09 0.0025 1 1 2.5 0.005 38 4 1 1 
-0.40125 -2.89247e-14 -7.61702e-12 0.0025 1 1 2.5 0.005 39 4 1 1 
-0.39875 5.46689e-16 -3.9222e-12 0.0025 1 1 2.5 0.005 40 5 1 1 
-0.39625 3.98505e-16 3.41061e-13 0.0025 1 1 2.5 0.005 41 5 1 1 
-0.39375 4.98154e-17 5.68434e-14 0.0025 1 1 2.5 0.005 42 5 1 1 
-0.39125 9.82435e-48 1.12104e-44 0.0025 1 1 2.5 0.005 43 5 1 1 
-0.38875 0 0 0.0025 1 1 2.5 0.005 44 5 1 1 
-0.38625 0 0 0.0025 1 1 2.5 0.005 45 5 1 1 
-0.38375 0 0 0.0025 1 1 2.5 0.005 46 5 1 1 
-0.38125 0 0 0.0025 1 1 2.5 0.005 47 5 1 1 
-0.37875 0 0 0.0025 1 1 2.5 0.005 48 5 1 1 
-0.37625 0 0 0.0025 1 1 2.5 0.005 49 5 1 1 
-0.37375 0 0 0.0025 1 1 2.5 0.005 50 5 1 1 
-0.37125 0 0 0.0025 1 1 2.5 0.005 51 5 1 1 
-0.36875 0 0 0.0025 1 1 2.5 0.005 52 5 1 1 
-0.36625 0 0 0.0025 1 1 2.5 0.005 53 5 1 1 
-0.36375 0 0 0.0025 1 1 2.5 0.005 54 5 1 1 
-0.36125 0 0 0.0025 1 1 2.5 0.005 55 5 1 1 
-0.35875 0 0 0.0025 1 1 2.5 0.005 56 5 1 1 
-0.35625 0 0 0.0025 1 1 2.5 0.005 57 5 1 1 
-0.35375 0 0 0.0025 1 1 2.5 0.005 58 5 1 1 
-0.35125 0 0 0.0025 1 1 2.5 0.005 59 5 1 1 
-0.34875 0 0 0.0025 1 1 2.5 0.005 60 5 1 1 
-0.34625 0 0 0.0025 1 1 2.5 0.005 61 5 1 1 
-0.34375 0 0 0.0025 1 1 2.5 0.005 62 5 1 1 
-0.34125 0 0 0.0025 1 1 2.5 0.005 63 5 1 1 
-0.33875 0 0 0.0025 1 1 2.5 0.005 64 5 1 1 
-0.33625 0 0 0.0025 1 1 2.5 0.005 65 5 1 1 
-0.33375 0 0 0.0025 1 1 2.5 0.005 66 5 1 1 
-0.33125 0 0 0.0025 1 1 2.5 0.005 67 5 1 1 
-0.32875 0 0 0.0025 1 1 2.5 0.005 68 5 1 1 
-0.32625 0 0 0.0025 1 1 2.5 0.005 69 5 1 1 
-0.32375 0 0 0.0025 1 1 2.5 0.005 70 5 1 1 
-0.32125 0 0 0.0025 1 1 2.5 0.005 71 5 1 1 
-0.31875 0 0 0.0025 1 1 2.5 0.005 72 5 1 1 
-0.31625 0 0 0.0025 1 1 2.5 0.005 73 5 1 1 
-0.31375 0 0 0.0025 1 1 2.5 0.005 74 5 1 1 
-0.31125 0 0 0.0025 1 1 2.5 0.005 75 5 1 1 
-0.30875 0 0 0.0025 1 1 2.5 0.005 76 5 1 1 
-0.30625 0 0 0.0025 1 1 2.5 0.005 77 5 1 1 
-0.30375 0 0 0.0025 1 1 2.5 0.005 78 5 1 1 
-0.30125 0 0 0.0025 1 1 2.5 0.005 79 5 1 1 
-0.29875 0 0 0.0025 1 1 2.5 0.005 80 5 1 1 
-0.29625 0 0 0.0025 1 1 2.5 0.005 81 5 1 1 
-0.29375 0 0 0.0025 1 1 2.5 0.005 82 5 1 1 
-0.29125 0 0 0.0025 1 1 2.5 0.005 83 5 1 1 
-0.28875 0 0 0.0025 1 1 2.5 0.005 84 5 1 1 
-0.28625 0 0 0.0025 1 1 2.5 0.005 85 5 1 1 
-0.28375 0 0 0.0025 1 1 2.5 0.005 86 5 1 1 
-0.28125 0 0 0.0025 1 1 2.5 0.005 87 5 1 1 
-0.27875 0 0 0.0025 1 1 2.5 0.005 88 5 1 1 
-0.27625 0 0 0.0025 1 1 2.5 0.005 89 5 1 1 
-0.27375 0 0 0.0025 1 1 2.5 0.005 90 5 1 1 
-0.27125 0 0 0.0025 1 1 2.5 0.005 91 5 1 1 
-0.26875 0 0 0.0025 1 1 2.5 0.005 92 5 1 1 
-0.26625 0 0 0.0025 1 1 2.5 0.005 93 5 1 1 
-0.26375 0 0 0.0025 1 1 2.5 0.005 94 5 1 1 
-0.26125 0 0 0.0025 1 1 2.5 0.005 95 5 1 1 
-0.25875 0 0 0.0025 1 1 2.5 0.005 96 5 1 1 
-0.25625 0 0 0.0025 1 1 2.5 0.005 97 5 1 1 
-0.25375 0 0 0.0025 1 1 2.5 0.005 98 5 1 1 
-0.25125 0 0 0.0025 1 1 2.5 0.005 99 5 1 1 
-0.24875 0 0 0.0025 1 1 2.5 0.005 100 5 1 1 
-0.24625 0 0 0.0025 1 1 2.5 0.005 101 5 1 1 
-0.24375 0 0 0.0025 1 1 2.5 0.005 102 5 1 1 
-0.24125 0 0 0.0025 1 1 2.5 0.005 103 5 1 1 
-0.23875 0 0 0.0025 1 1 2.5 0.005 104 5 1 1 
-0.23625 0 0 0.0025 1 1 2.5 0.005 105 5 1 1 
-0.23375 0 0 0.0025 1 1 2.5 0.005 106 5 1 1 
-0.23125 0 0 0.0025 1 1 2.5 0.005 107 5 1 1 
-0.22875 0 0 0.0025 1 1 2.5 0.005 108 5 1 1 
-0.22625 0 0 0.0025 1 1 2.5 0.005 109 5 1 1 
-0.22375 0 0 0.0025 1 1 2.5 0.005 110 5 1 1 
-0.22125 0 0 0.0025 1 1 2.5 0.005 111 5 1 1 
-0.21875 0 0 0.0025 1 1 2.5 0.005 112 5 1 1 
-0.21625 0 0 0.0025 1 1 2.5 0.005 113 5 1 1 
-0.21375 0 0 0.0025 1 1 2.5 0.005 114 5 1 1 
-0.21125 0 0 0.0025 1 1 2.5 0.005 115 5 1 1 
-0.20875 0 0 0.0025 1 1 2.5 0.005 116 5 1 1 
-0.20625 0 0 0.0025 1 1 2.5 0.005 117 5 1 1 
-0.20375 0 0 0.0025 1 1 2.5 0.005 118 5 1 1 
-0.20125 0 0 0.0025 1 1 2.5 0.005 119 5 1 1 
-0.19875 0 0 0.0025 1 1 2.5 0.005 120 5 1 1 
-0.19625 0 0 0.0025 1 1 2.5 0.005 121 5 1 1 
-0.19375 0 0 0.0025 1 1 2.5 0.005 122 5 1 1 
-0.19125 0 0 0.0025 1 1 2.5 0.005 123 5 1 1 
-0.18875 0 0 0.0025 1 1 2.5 0.005 124 5 1 1 
-0.18625 0 0 0.0025 1 1 2.5 0.005 125 5 1 1 
-0.18375 0 0 0.0025 1 1 2.5 0.005 126 5 1 1 
-0.18125 0 0 0.0025 1 1 2.5 0.005 127 5 1 1 
-0.17875 0 0 0.0025 1 1 2.5 0.005 128 5 1 1 
-0.17625 0 0 0.0025 1 1 2.5 0.005 129 5 1 1 
-0.17375 0 0 0.0025 1 1 2.5 0.005 130 5 1 1 
-0.17125 0 0 0.0025 1 1 2.5 0.005 131 5 1 1 
-0.16875 0 0 0.0025 1 1 2.5 0.005 132 5 1 1 
-0.16625 0 0 0.0025 1 1 2.5 0.005 133 5 1 1 
-0.16375 0 0 0.0025 1 1 2.5 0.005 134 5 1 1 
-0.16125 0 0 0.0025 1 1 2.5 0.005 135 5 1 1 
-0.15875 0 0 0.0025 1 1 2.5 0.005 136 5 1 1 
-0.15625 0 0 0.0025 1 1 2.5 0.005 137 5 1 1 
-0.15375 0 0 0.0025 1 1 2.5 0.005 138 5 1 1 
-0.15125 0 0 0.0025 1 1 2.5 0.005 139 5 1 1 
-0.14875 0 0 0.0025 1 1 2.5 0.005 140 5 1 1 
-0.14625 0 0 0.0025 1 1 2.5 0.005 141 5 1 1 
-0.14375 0 0 0.0025 1 1 2.5 0.005 142 5 1 1 
-0.14125 0 0 0.0025 1 1 2.5 0.005 143 5 1 1 
-0.13875 0 0 0.0025 1 1 2.5 0.005 144 5 1 1 
-0.13625 0 0 0.0025 1 1 2.5 0.005 145 5 1 1 
-0.13375 0 0 0.0025 1 1 2.5 0.005 146 5 1 1 
-0.13125 0 0 0.0025 1 1 2.5 0.005 147 5 1 1 
-0.12875 0 0 0.0025 1 1 2.5 0.005 148 5 1 1 
-0.12625 0 0 0.0025 1 1 2.5 0.005 149 5 1 1 
-0.12375 0 0 0.0025 1 1 2.5 0.005 150 5 1 1 
-0.12125 0 0 0.0025 1 1 2.5 0.005 151 5 1 1 
-0.11875 0 0 0.0025 1 1 2.5 0.005 152 5 1 1 
-0.11625 0 0 0.0025 1 1 2.5 0.005 153 5 1 1 
-0.11375 0 0 0.0025 1 1 2.5 0.005 154 5 1 1 
-0.11125 0 0 0.0025 1 1 2.5 0.005 155 5 1 1 
-0.10875 0 0 0.0025 1 1 2.5 0.005 156 5 1 1 
-0.10625 0 0 0.0025 1 1 2.5 0.005 157 5 1 1 
-0.10375 0 0 0.0025 1 1 2.5 0.005 158 5 1 1 
-0.10125 0 0 0.0025 1 1 2.5 0.005 159 5 1 1 
-0.09875 0 0 0.0025 1 1 2.5 0.005 160 5 1 1 
-0.09625 0 0 0.0025 1 1 2.5 0.005 161 5 1 1 
-0.09375 0 0 0.0025 1 1 2.5 0.005 162 5 1 1 
-0.09125 0 0 0.0025 1 1 2.5 0.005 163 5 1 1 
-0.08875 0 0 0.0025 1 1 2.5 0.005 164 5 1 1 
-0.08625 0 0 0.0025 1 1 2.5 0.005 165 5 1 1 
-0.08375 0 0 0.0025 1 1 2.5 0.005 166 5 1 1 
-0.08125 0 0 0.0025 1 1 2.5 0.005 167 5 1 1 
-0.07875 0 0 0.0025 1 1 2.5 0.005 168 5 1 1 
-0.07625 0 0 0.0025 1 1 2.5 0.005 169 5 1 1 
-0.07375 0 0 0.0025 1 1 2.5 0.005 170 5 1 1 
-0.07125 0 0 0.0025 1 1 2.5 0.005 171 5 1 1 
-0.06875 0 0 0.0025 1 1 2.5 0.005 172 5 1 1 
-0.06625 0 0 0.0025 1 1 2.5 0.005 173 5 1 1 
-0.06375 0 0 0.0025 1 1 2.5 0.005 174 5 1 1 
-0.06125 0 0 0.0025 1 1 2.5 0.005 175 5 1 1 
-0.05875 0 0 0.0025 1 1 2.5 0.005 176 5 1 1 
-0.05625 0 0 0.0025 1 1 2.5 0.005 177 5 1 1 
-0.05375 0 0 0.0025 1 1 2.5 0.005 178 5 1 1 
-0.05125 -7.5154e-47 -1.12104e-44 0.0025 1 1 2.5 0.005 179 5 1 1 
-0.04875 -1.49097e-16 -5.68434e-14 0.0025 1 1 2.5 0.005 180 5 1 1 
-0.04625 -3.12801e-16 5.68434e-14 0.0025 1 1 2.5 0.005 181 5 1 1 
-0.04375 -5.4102e-16 -5.68434e-14 0.0025 1 1 2.5 0.005 182 5 1 1 
-0.04125 -9.15024e-16 -1.13687e-13 0.0025 1 1 2.5 0.005 183 5 1 1 
-0.03875 -1.41545e-15 5.68434e-14 0.0025 1 1 2.5 0.005 184 5 1 1 
-0.03625 -1.80726e-15 -5.52203e-28 0.0025 1 1 2.5 0.005 185 5 1 1 
-0.03375 -3.52532e-15 -1.13687e-13 0.0025 1 1 2.5 0.005 186 4 1 1 
-0.03125 6.35487e-17 5.68434e-14 0.0025 1 1 2.5 0.005 187 3 1 1 
-0.02875 -3.61195e-16 -5.68434e-14 0.0025 1 1 2.5 0.005 188 3 1 1 
-0.02625 -1.85135e-16 -5.68434e-14 0.0025 1 1 2.5 0.005 189 3 1 1 
-0.02375 -2.79221e-16 5.68434e-14 0.0025 1 1 2.5 0.005 190 3 1 1 
-0.02125 -5.82605e-16 -1.13687e-13 0.0025 1 1 2.5 0.005 191 3 1 1 
-0.01875 2.99526e-15 2.27374e-13 0.0025 1 1 2.5 0.005 192 4 1 1 
-0.01625 1.26209e-15 0 0.0025 1 1 2.5 0.005 193 5 1 1 
-0.01375 -2.976e-16 -1.13687e-13 0.0025 1 1 2.5 0.005 194 4 1 1 
-0.01125 1.24112e-15 1.13687e-13 0.0025 1 1 2.5 0.005 195 3 1 1 
-0.00875 1.18781e-15 -5.68434e-14 0.0025 1 1 2.5 0.005 196 4 1 1 
-0.00625 7.11806e-16 -5.68434e-14 0.0025 1 1 2.5 0.005 197 4 1 1 
-0.00375 6.6696e-16 4.93038e-29 0.0025 1 1 2.5 0.005 198 4 1 1 
-0.00125 -1.01517e-16 2.27374e-13 0.0025 1 1 2.5 0.005 199 4 1 1 
0.00125 3.37735e-17 0 0.0025 1 1 2.5 0.005 200 5 1 1 
0.00375 2.26799e-16 -4.93038e-29 0.0025 1 1 2.5 0.005 201 5 1 1 
0.00625 -6.30926e-16 -1.13687e-13 0.0025 1 1 2.5 0.005 202 4 1 1 
0.00875 -1.0365e-15 -8.87469e-29 0.0025 1 1 2.5 0.005 203 4 1 1 
0.01125 -1.13992e-15 2.07076e-28 0.0025 1 1 2.5 0.005 204 3 1 1 
0.01375 -4.65378e-16 8.87469e-29 0.0025 1 1 2.5 0.005 205 4 1 1 
0.01625 -2.4255e-15 -3.41061e-13 0.0025 1 1 2.5 0.005 206 4 1 1 
0.01875 -2.16999e-16 6.25278e-13 0.0025 1 1 2.5 0.005 207 4 1 1 
0.02125 -1.68907e-15 -5.11591e-13 0.0025 1 1 2.5 0.005 208 4 1 1 
0.02375 4.49071e-16 5.68434e-14 0.0025 1 1 2.5 0.005 209 3 1 1 
0.02625 3.27383e-16 5.68434e-14 0.0025 1 1 2.5 0.005 210 3 1 1 
0.02875 -1.59981e-17 -6.31089e-28 0.0025 1 1 2.5 0.005 211 3 1 1 
0.03125 3.59109e-15 3.15544e-28 0.0025 1 1 2.5 0.005 212 4 1 1 
0.03375 1.87303e-15 1.13687e-13 0.0025 1 1 2.5 0.005 213 5 1 1 
0.03625 1.44759e-15 5.68434e-14 0.0025 1 1 2.5 0.005 214 5 1 1 
0.03875 9.80597e-16 1.12104e-44 0.0025 1 1 2.5 0.005 215 5 1 1 
0.04125 5.57222e-16 2.24208e-44 0.0025 1 1 2.5 0.005 216 5 1 1 
0.04375 3.12787e-16 5.68434e-14 0.0025 1 1 2.5 0.005 217 5 1 1 
0.04625 1.65608e-16 1.12104e-44 0.0025 1 1 2.5 0.005 218 5 1 1 
0.04875 8.16495e-47 1.12104e-44 0.0025 1 1 2.5 0.005 219 5 1 1 
0.05125 0 0 0.0025 1 1 2.5 0.005 220 5 1 1 
0.05375 0 0 0.0025 1 1 2.5 0.005 221 5 1 1 
0.05625 0 0 0.0025 1 1 2.5 0.005 222 5 1 1 
0.05875 0 0 0.0025 1 1 2.5 0.005 223 5 1 1 
0.06125 0 0 0.0025 1 1 2.5 0.005 224 5 1 1 
0.06375 0 0 0.0025 1 1 2.5 0.005 225 5 1 1 
0.06625 0 0 0.0025 1 1 2.5 0.005 226 5 1 1 
0.06875 0 0 0.0025 1 1 2.5 0.005 227 5 1 1 
0.07125 0 0 0.0025 1 1 2.5 0.005 228 5 1 1 
0.07375 0 0 0.0025 1 1 2.5 0.005 229 5 1 1 
0.07625 0 0 0.0025 1 1 2.5 0.005 230 5 1 1 
0.07875 0 0 0.0025 1 1 2.5 0.005 231 5 1 1 
0.08125 0 0 0.0025 1 1 2.5 0.005 232 5 1 1 
0.08375 0 0 0.0025 1 1 2.5 0.005 233 5 1 1 
0.08625 0 0 0.0025 1 1 2.5 0.005 234 5 1 1 
0.08875 0 0 0.0025 1 1 2.5 0.005 235 5 1 1 
0.09125 0 0 0.0025 1 1 2.5 0.005 236 5 1 1 
0.09375 0 0 0.0025 1 1 2.5 0.005 237 5 1 1 
0.09625 -6.21146e-47 -1.12104e-44 0.0025 1 1 2.5 0.005 238 5 1 1 
0.09875 -1.65759e-16 -1.12104e-44 0.0025 1 1 2.5 0.005 239 5 1 1 
0.10125 -3.46995e-16 -5.68434e-14 0.0025 1 1 2.5 0.005 240 5 1 1 
0.10375 -7.25568e-16 -2.24208e-44 0.0025 1 1 2.5 0.005 241 5 1 1 
0.10625 -1.14971e-15 3.36312e-44 0.0025 1 1 2.5 0.005 242 5 1 1 
0.10875 -1.61739e-15 5.68434e-14 0.0025 1 1 2.5 0.005 243 5 1 1 
0.11125 -1.1983e-15 5.11591e-13 0.0025 1 1 2.5 0.005 244 5 1 1 
0.11375 -2.84478e-15 5.11591e-13 0.0025 1 1 2.5 0.005 245 5 1 1 
0.11625 3.4991e-15 -5.68434e-13 0.0025 1 1 2.5 0.005 246 5 1 1 
0.11875 1.75886e-16 -4.54747e-13 0.0025 1 1 2.5 0.005 247 5 1 1 
0.12125 -2.1509e-16 1.7053e-13 0.0025 1 1 2.5 0.005 248 5 1 1 
0.12375 -5.59422e-15 2.84217e-13 0.0025 1 1 2.5 0.005 249 4 1 1 
0.12625 5.59422e-15 -2.84217e-13 0.0025 1 1 2.5 0.005 250 4 1 1 
0.12875 2.1509e-16 -1.7053e-13 0.0025 1 1 2.5 0.005 251 5 1 1 
0.13125 -1.75886e-16 4.54747e-13 0.0025 1 1 2.5 0.005 252 5 1 1 
0.13375 -3.4991e-15 5.68434e-13 0.0025 1 1 2.5 0.005 253 5 1 1 
0.13625 2.84478e-15 -5.11591e-13 0.0025 1 1 2.5 0.005 254 5 1 1 
0.13875 1.1983e-15 -5.11591e-13 0.0025 1 1 2.5 0.005 255 5 1 1 
0.14125 1.61739e-15 -5.68434e-14 0.0025 1 1 2.5 0.005 256 5 1 1 
0.14375 1.14971e-15 -3.36312e-44 0.0025 1 1 2.5 0.005 257 5 1 1 
0.14625 7.25568e-16 2.24208e-44 0.0025 1 1 2.5 0.005 258 5 1 1 
0.14875 3.46995e-16 5.68434e-14 0.0025 1 1 2.5 0.005 259 5 1 1 
0.15125 1.65759e-16 1.12104e-44 0.0025 1 1 2.5 0.005 260 5 1 1 
0.15375 6.21146e-47 1.12104e-44 0.0025 1 1 2.5 0.005 261 5 1 1 
0.15625 0 0 0.0025 1 1 2.5 0.005 262 5 1 1 
0.15875 0 0 0.0025 1 1 2.5 0.005 263 5 1 1 
0.16125 0 0 0.0025 1 1 2.5 0.005 264 5 1 1 
0.16375 0 0 0.0025 1 1 2.5 0.005 265 5 1 1 
0.16625 0 0 0.0025 1 1 2.5 0.005 266 5 1 1 
0.16875 0 0 0.0025 1 1 2.5 0.005 267 5 1 1 
0.17125 0 0 0.0025 1 1 2.5 0.005 268 5 1 1 
0.17375 0 0 0.0025 1 1 2.5 0.005 269 5 1 1 
0.17625 0 0 0.0025 1 1 2.5 0.005 270 5 1 1 
0.17875 0 0 0.0025 1 1 2.5 0.005 271 5 1 1 
0.18125 0 0 0.0025 1 1 2.5 0.005 272 5 1 1 
0.18375 0 0 0.0025 1 1 2.5 0.005 273 5 1 1 
0.18625 0 0 0.0025 1 1 2.5 0.005 274 5 1 1 
0.18875 0 0 0.0025 1 1 2.5 0.005 275 5 1 1 
0.19125 0 0 0.0025 1 1 2.5 0.005 276 5 1 1 
0.19375 0 0 0.0025 1 1 2.5 0.005 277 5 1 1 
0.19625 0 0 0.0025 1 1 2.5 0.005 278 5 1 1 
0.19875 0 0 0.0025 1 1 2.5 0.005 279 5 1 1 
0.20125 0 0 0.0025 1 1 2.5 0.005 280 5 1 1 
0.20375 0 0 0.0025 1 1 2.5 0.005 281 5 1 1 
0.20625 0 0 0.0025 1 1 2.5 0.005 282 5 1 1 
0.20875 0 0 0.0025 1 1 2.5 0.005 283 5 1 1 
0.21125 0 0 0.0025 1 1 2.5 0.005 284 5 1 1 
0.21375 -1.63736e-47 -1.12104e-44 0.0025 1 1 2.5 0.005 285 5 1 1 
0.21625 -4.982e-17 -5.68434e-14 0.0025 1 1 2.5 0.005 286 5 1 1 
0.21875 -2.65307e-16 -1.13687e-13 0.0025 1 1 2.5 0.005 287 5 1 1 
0.22125 -8.1184e-16 -5.68434e-14 0.0025 1 1 2.5 0.005 288 5 1 1 
0.22375 -1.47139e-15 -1.7053e-13 0.0025 1 1 2.5 0.005 289 5 1 1 
0.22625 -2.84024e-15 -2.27374e-13 0.0025 1 1 2.5 0.005 290 5 1 1 
0.22875 -4.89415e-15 -1.7053e-13 0.0025 1 1 2.5 0.005 291 5 1 1 
0.23125 -6.50906e-15 -2.27374e-13 0.0025 1 1 2.5 0.005 292 5 1 1 
0.23375 -7.29757e-15 -1.13687e-13 0.0025 1 1 2.5 0.005 293 5 1 1 
0.23625 -1.78499e-15 1.36424e-12 0.0025 1 1 2.5 0.005 294 5 1 1 
0.23875 -4.66656e-15 1.02318e-12 0.0025 1 1 2.5 0.005 295 5 1 1 
0.24125 7.6416e-15 -8.52651e-13 0.0025 1 1 2.5 0.005 296 5 1 1 
0.24375 1.33983e-15 -7.95808e-13 0.0025 1 1 2.5 0.005 297 5 1 1 
0.24625 9.25018e-17 5.68434e-14 0.0025 1 1 2.5 0.005 298 5 1 1 
0.24875 -9.81779e-15 1.7053e-13 0.0025 1 1 2.5 0.005 299 3 1 1 
0.25125 9.81779e-15 -1.7053e-13 0.0025 1 1 2.5 0.005 300 3 1 1 
0.25375 -9.25018e-17 -5.68434e-14 0.0025 1 1 2.5 0.005 301 5 1 1 
0.25625 -1.33983e-15 7.95808e-13 0.0025 1 1 2.5 0.005 302 5 1 1 
0.25875 -7.6416e-15 8.52651e-13 0.0025 1 1 2.5 0.005 303 5 1 1 
0.26125 4.66656e-15 -1.02318e-12 0.0025 1 1 2.5 0.005 304 5 1 1 
0.26375 1.78499e-15 -1.36424e-12 0.0025 1 1 2.5 0.005 305 5 1 1 
0.26625 7.29757e-15 1.13687e-13 0.0025 1 1 2.5 0.005 306 5 1 1 
0.26875 6.50906e-15 2.27374e-13 0.0025 1 1 2.5 0.005 307 5 1 1 
0.27125 4.89415e-15 1.7053e-13 0.0025 1 1 2.5 0.005 308 5 1 1 
0.27375 2.84024e-15 2.27374e-13 0.0025 1 1 2.5 0.005 309 5 1 1 
0.27625 1.47139e-15 1.7053e-13 0.0025 1 1 2.5 0.005 310 5 1 1 
0.27875 8.1184e-16 5.68434e-14 0.0025 1 1 2.5 0.005 311 5 1 1 
0.28125 2.65307e-16 1.13687e-13 0.0025 1 1 2.5 0.005 312 5 1 1 
0.28375 4.982e-17 5.68434e-14 0.0025 1 1 2.5 0.005 313 5 1 1 
0.28625 1.63736e-47 1.12104e-44 0.0025 1 1 2.5 0.005 314 5 1 1 
0.28875 0 0 0.0025 1 1 2.5 0.005 315 5 1 1 
0.29125 0 0 0.0025 1 1 2.5 0.005 316 5 1 1 
0.29375 0 0 0.0025 1 1 2.5 0.005 317 5 1 1 
0.29625 0 0 0.0025 1 1 2.5 0.005 318 5 1 1 
0.29875 0 0 0.0025 1 1 2.5 0.005 319 5 1 1 
0.30125 0 0 0.0025 1 1 2.5 0.005 320 5 1 1 
0.30375 0 0 0.0025 1 1 2.5 0.005 321 5 1 1 
0.30625 0 0 0.0025 1 1 2.5 0.005 322 5 1 1 
0.30875 0 0 0.0025 1 1 2.5 0.005 323 5 1 1 
0.31125 0 0 0.0025 1 1 2.5 0.005 324 5 1 1 
0.31375 0 0 0.0025 1 1 2.5 0.005 325 5 1 1 
0.31625 0 0 0.0025 1 1 2.5 0.005 326 5 1 1 
0.31875 0 0 0.0025 1 1 2.5 0.005 327 5 1 1 
0.32125 0 0 0.0025 1 1 2.5 0.005 328 5 1 1 
0.32375 0 0 0.0025 1 1 2.5 0.005 329 5 1 1 
0.32625 0 0 0.0025 1 1 2.5 0.005 330 5 1 1 
0.32875 0 0 0.0025 1 1 2.5 0.005 331 5 1 1 
0.33125 0 0 0.0025 1 1 2.5 0.005 332 5 1 1 
0.33375 0 0 0.0025 1 1 2.5 0.005 333 5 1 1 
0.33625 0 0 0.0025 1 1 2.5 0.005 334 5 1 1 
0.33875 0 0 0.0025 1 1 2.5 0.005 335 5 1 1 
0.34125 0 0 0.0025 1 1 2.5 0.005 336 5 1 1 
0.34375 0 0 0.0025 1 1 2.5 0.005 337 5 1 1 
0.34625 0 0 0.0025 1 1 2.5 0.005 338 5 1 1 
0.34875 0 0 0.0025 1 1 2.5 0.005 339 5 1 1 
0.35125 0 0 0.0025 1 1 2.5 0.005 340 5 1 1 
0.35375 0 0 0.0025 1 1 2.5 0.005 341 5 1 1 
0.35625 0 0 0.0025 1 1 2.5 0.005 342 5 1 1 
0.35875 0 0 0.0025 1 1 2.5 0.005 343 5 1 1 
0.36125 0 0 0.0025 1 1 2.5 0.005 344 5 1 1 
0.36375 0 0 0.0025 1 1 2.5 0.005 345 5 1 1 
0.36625 0 0 0.0025 1 1 2.5 0.005 346 5 1 1 
0.36875 0 0 0.0025 1 1 2.5 0.005 347 5 1 1 
0.37125 0 0 0.0025 1 1 2.5 0.005 348 5 1 1 
0.37375 0 0 0.0025 1 1 2.5 0.005 349 5 1 1 
0.37625 0 0 0.0025 1 1 2.5 0.005 350 5 1 1 
0.37875 0 0 0.0025 1 1 2.5 0.005 351 5 1 1 
0.38125 0 0 0.0025 1 1 2.5 0.005 352 5 1 1 
0.38375 0 0 0.0025 1 1 2.5 0.005 353 5 1 1 
0.38625 0 0 0.0025 1 1 2.5 0.005 354 5 1 1 
0.38875 0 0 0.0025 1 1 2.5 0.005 355 5 1 1 
0.39125 -9.82435e-48 -1.12104e-44 0.0025 1 1 2.5 0.005 356 5 1 1 
0.39375 -4.98154e-17 -5.68434e-14 0.0025 1 1 2.5 0.005 357 5 1 1 
0.39625 -1.82593e-16 1.7053e-13 0.0025 1 1 2.5 0.005 358 5 1 1 
0.39875 2.1599e-15 7.61702e-12 0.0025 1 1 2.5 0.005 359 5 1 1 
0.40125 8.99491e-15 -4.61569e-11 0.0025 1 1 2.5 0.005 360 4 1 1 
0.40375 -6.45707e-13 -1.34867e-09 0.0025 1 1 2.5 0.005 361 4 1 1 
0.40625 -6.73595e-12 -8.87951e-09 0.0025 1 1 2.5 0.005 362 4 1 1 
0.40875 -3.55649e-11 -3.15024e-08 0.0025 1 1 2.5 0.005 363 4 1 1 
