# Time [s]: 0.0581908
# Columns: pos [m], vel [m/s], acc [m/s^2], mass [kg], dens [kg/m^3], pres [Pa], ene [J/kg], sml [m], id, neighbor, alpha, gradh, ...additional?
-0.634827 -2.89421 -8.66759 0.0025 0.049771 0.016726 0.840166 0.10046 0 5 1 1.04161 
-0.593438 -2.30675 -10.2775 0.0025 0.0864326 0.0324088 0.937422 0.0578486 1 5 1 0.978506 
-0.569566 -1.96875 -11.1628 0.0025 0.129442 0.0572007 1.10478 0.0386274 2 4 1 0.948839 
-0.552857 -1.73315 -11.7764 0.0025 0.173258 0.086039 1.24151 0.0288587 3 4 1 0.952566 
-0.539971 -1.55215 -12.2361 0.0025 0.215781 0.116952 1.35501 0.0231716 4 4 1 0.961105 
-0.529364 -1.40371 -12.6106 0.0025 0.256162 0.148677 1.45104 0.0195189 5 4 1 0.968842 
-0.520284 -1.27688 -12.9668 0.0025 0.294951 0.181107 1.5351 0.016952 6 4 1 0.974761 
-0.512312 -1.1653 -13.3172 0.0025 0.332618 0.214278 1.61057 0.0150323 7 4 1 0.979295 
-0.505187 -1.06552 -13.5778 0.0025 0.369382 0.248135 1.67943 0.0135361 8 4 1 0.982648 
-0.498732 -0.974916 -13.9249 0.0025 0.405453 0.282693 1.74311 0.0123319 9 4 1 0.985305 
-0.492824 -0.891657 -14.166 0.0025 0.440968 0.317941 1.80256 0.0113387 10 4 1 0.987361 
-0.48737 -0.814525 -14.4736 0.0025 0.475999 0.35384 1.85845 0.0105042 11 4 1 0.989058 
-0.482302 -0.742698 -14.6769 0.0025 0.510598 0.39035 1.91129 0.00979244 12 4 1 0.990449 
-0.477563 -0.675423 -14.8859 0.0025 0.544746 0.427368 1.96136 0.00917859 13 4 1 0.991613 
-0.473112 -0.612251 -15.0442 0.0025 0.578458 0.464837 2.00899 0.00864367 14 4 1 0.992588 
-0.468911 -0.552736 -15.1959 0.0025 0.611732 0.502684 2.0544 0.00817352 15 4 1 0.993423 
-0.464931 -0.496499 -15.2971 0.0025 0.644563 0.540845 2.09777 0.00775719 16 4 1 0.994135 
-0.461148 -0.443136 -15.387 0.0025 0.676942 0.57925 2.13926 0.00738615 17 4 1 0.994733 
-0.45754 -0.392507 -15.5016 0.0025 0.708912 0.617897 2.17908 0.00705307 18 4 1 0.995258 
-0.45409 -0.344307 -15.5532 0.0025 0.740472 0.65674 2.21735 0.00675245 19 4 1 0.995721 
-0.450784 -0.298225 -15.59 0.0025 0.771591 0.695694 2.25413 0.00648012 20 4 1 0.996127 
-0.447607 -0.25428 -15.6038 0.0025 0.802266 0.734713 2.28953 0.00623235 21 4 1 0.996495 
-0.444549 -0.21241 -15.5354 0.0025 0.832459 0.773702 2.32359 0.0060063 22 4 1 0.996781 
-0.441599 -0.17223 -15.7144 0.0025 0.862292 0.81278 2.35652 0.0057985 23 4 1 0.996991 
-0.438749 -0.132944 -16.2043 0.0025 0.892023 0.852316 2.38871 0.00560524 24 4 1 0.997479 
-0.435992 -0.0955355 -14.7931 0.0025 0.920462 0.890672 2.41892 0.00543206 25 4 1 0.998302 
-0.433315 -0.0657853 -10.7004 0.0025 0.944878 0.923756 2.4442 0.00529169 26 4 1 0.998153 
-0.430699 -0.0398812 -14.3521 0.0025 0.969065 0.956749 2.46885 0.00515961 27 4 1 0.996619 
-0.428154 0.00246686 -25.1506 0.0025 1.00243 1.00364 2.50292 0.0049879 28 4 1 0.997712 
-0.425709 0.0483255 -15.5419 0.0025 1.03536 1.05059 2.5358 0.00482926 29 4 1 1.00001 
-0.423324 0.0602462 0.369936 0.0025 1.0483 1.06873 2.54814 0.00476965 30 3 1 1 
-0.42094 0.0548279 3.77773 0.0025 1.0446 1.06318 2.54432 0.00478653 31 4 1 1 
-0.418538 0.045237 5.12679 0.0025 1.03625 1.05122 2.53607 0.0048251 32 4 1 0.999827 
-0.416114 0.0342395 5.50271 0.0025 1.02701 1.03806 2.52691 0.0048685 33 4 1 0.999767 
-0.413669 0.023729 4.97689 0.0025 1.01849 1.02596 2.51842 0.00490925 34 4 1 0.999788 
-0.411205 0.0150707 3.89859 0.0025 1.01164 1.01629 2.51159 0.00494249 35 4 1 0.999855 
-0.408727 0.00881025 2.69445 0.0025 1.00676 1.00944 2.50672 0.00496641 36 4 1 0.999923 
-0.406239 0.00476933 1.6734 0.0025 1.00365 1.00508 2.50362 0.00498182 37 4 1 0.999967 
-0.403745 0.00240385 0.948145 0.0025 1.00184 1.00255 2.50182 0.00499084 38 4 1 0.999989 
-0.401248 0.00113211 0.495436 0.0025 1.00086 1.0012 2.50085 0.00499569 39 4 1 0.999997 
-0.398749 0.000498932 0.24024 0.0025 1.00038 1.00053 2.50038 0.0049981 40 4 1 0.999999 
-0.39625 0.000205704 0.108398 0.0025 1.00016 1.00022 2.50015 0.00499921 41 4 1 1 
-0.39375 7.92165e-05 0.0455253 0.0025 1.00006 1.00008 2.50006 0.0049997 42 4 1 1 
-0.39125 2.84186e-05 0.0177739 0.0025 1.00002 1.00003 2.50002 0.00499989 43 4 1 1 
-0.38875 9.46144e-06 0.00643428 0.0025 1.00001 1.00001 2.50001 0.00499996 44 4 1 1 
-0.38625 2.90806e-06 0.00215138 0.0025 1 1 2.5 0.00499999 45 4 1 1 
-0.38375 8.19111e-07 0.000660666 0.0025 1 1 2.5 0.005 46 4 1 1 
-0.38125 2.09173e-07 0.0001848 0.0025 1 1 2.5 0.005 47 4 1 1 
-0.37875 4.76314e-08 4.6496e-05 0.0025 1 1 2.5 0.005 48 4 1 1 
-0.37625 9.40628e-09 1.03098e-05 0.0025 1 1 2.5 0.005 49 4 1 1 
-0.37375 1.52728e-09 1.94171e-06 0.0025 1 1 2.5 0.005 50 4 1 1 
-0.37125 1.79076e-10 2.86572e-07 0.0025 1 1 2.5 0.005 51 4 1 1 
-0.36875 8.42298e-12 2.5832e-08 0.0025 1 1 2.5 0.005 52 4 1 1 
-0.36625 -8.59079e-13 -1.91733e-09 0.0025 1 1 2.5 0.005 53 5 1 1 
-0.36375 3.64499e-13 -8.72546e-11 0.0025 1 1 2.5 0.005 54 3 1 1 
-0.36125 1.76774e-13 9.31664e-11 0.0025 1 1 2.5 0.005 55 4 1 1 
-0.35875 6.26415e-14 7.23048e-11 0.0025 1 1 2.5 0.005 56 4 1 1 
-0.35625 2.93478e-15 4.77485e-12 0.0025 1 1 2.5 0.005 57 5 1 1 
-0.35375 3.3749e-16 1.02318e-12 0.0025 1 1 2.5 0.005 58 5 1 1 
-0.35125 6.65582e-47 2.01787e-43 0.0025 1 1 2.5 0.005 59 5 1 1 
-0.34875 0 0 0.0025 1 1 2.5 0.005 60 5 1 1 
-0.34625 0 0 0.0025 1 1 2.5 0.005 61 5 1 1 
-0.34375 0 0 0.0025 1 1 2.5 0.005 62 5 1 1 
-0.34125 0 0 0.0025 1 1 2.5 0.005 63 5 1 1 
-0.33875 0 0 0.0025 1 1 2.5 0.005 64 5 1 1 
-0.33625 0 0 0.0025 1 1 2.5 0.005 65 5 1 1 
-0.33375 0 0 0.0025 1 1 2.5 0.005 66 5 1 1 
-0.33125 0 0 0.0025 1 1 2.5 0.005 67 5 1 1 
-0.32875 0 0 0.0025 1 1 2.5 0.005 68 5 1 1 
-0.32625 0 0 0.0025 1 1 2.5 0.005 69 5 1 1 
-0.32375 0 0 0.0025 1 1 2.5 0.005 70 5 1 1 
-0.32125 0 0 0.0025 1 1 2.5 0.005 71 5 1 1 
-0.31875 0 0 0.0025 1 1 2.5 0.005 72 5 1 1 
-0.31625 0 0 0.0025 1 1 2.5 0.005 73 5 1 1 
-0.31375 0 0 0.0025 1 1 2.5 0.005 74 5 1 1 
-0.31125 0 0 0.0025 1 1 2.5 0.005 75 5 1 1 
-0.30875 0 0 0.0025 1 1 2.5 0.005 76 5 1 1 
-0.30625 0 0 0.0025 1 1 2.5 0.005 77 5 1 1 
-0.30375 0 0 0.0025 1 1 2.5 0.005 78 5 1 1 
-0.30125 0 0 0.0025 1 1 2.5 0.005 79 5 1 1 
-0.29875 0 0 0.0025 1 1 2.5 0.005 80 5 1 1 
-0.29625 0 0 0.0025 1 1 2.5 0.005 81 5 1 1 
-0.29375 0 0 0.0025 1 1 2.5 0.005 82 5 1 1 
-0.29125 0 0 0.0025 1 1 2.5 0.005 83 5 1 1 
-0.28875 0 0 0.0025 1 1 2.5 0.005 84 5 1 1 
-0.28625 0 0 0.0025 1 1 2.5 0.005 85 5 1 1 
-0.28375 0 0 0.0025 1 1 2.5 0.005 86 5 1 1 
-0.28125 0 0 0.0025 1 1 2.5 0.005 87 5 1 1 
-0.27875 0 0 0.0025 1 1 2.5 0.005 88 5 1 1 
-0.27625 0 0 0.0025 1 1 2.5 0.005 89 5 1 1 
-0.27375 0 0 0.0025 1 1 2.5 0.005 90 5 1 1 
-0.27125 0 0 0.0025 1 1 2.5 0.005 91 5 1 1 
-0.26875 0 0 0.0025 1 1 2.5 0.005 92 5 1 1 
-0.26625 0 0 0.0025 1 1 2.5 0.005 93 5 1 1 
-0.26375 0 0 0.0025 1 1 2.5 0.005 94 5 1 1 
-0.26125 0 0 0.0025 1 1 2.5 0.005 95 5 1 1 
-0.25875 0 0 0.0025 1 1 2.5 0.005 96 5 1 1 
-0.25625 0 0 0.0025 1 1 2.5 0.005 97 5 1 1 
-0.25375 0 0 0.0025 1 1 2.5 0.005 98 5 1 1 
-0.25125 0 0 0.0025 1 1 2.5 0.005 99 5 1 1 
-0.24875 0 0 0.0025 1 1 2.5 0.005 100 5 1 1 
-0.24625 0 0 0.0025 1 1 2.5 0.005 101 5 1 1 
-0.24375 0 0 0.0025 1 1 2.5 0.005 102 5 1 1 
-0.24125 0 0 0.0025 1 1 2.5 0.005 103 5 1 1 
-0.23875 0 0 0.0025 1 1 2.5 0.005 104 5 1 1 
-0.23625 0 0 0.0025 1 1 2.5 0.005 105 5 1 1 
-0.23375 0 0 0.0025 1 1 2.5 0.005 106 5 1 1 
-0.23125 0 0 0.0025 1 1 2.5 0.005 107 5 1 1 
-0.22875 0 0 0.0025 1 1 2.5 0.005 108 5 1 1 
-0.22625 0 0 0.0025 1 1 2.5 0.005 109 5 1 1 
-0.22375 0 0 0.0025 1 1 2.5 0.005 110 5 1 1 
-0.22125 0 0 0.0025 1 1 2.5 0.005 111 5 1 1 
-0.21875 0 0 0.0025 1 1 2.5 0.005 112 5 1 1 
-0.21625 0 0 0.0025 1 1 2.5 0.005 113 5 1 1 
-0.21375 0 0 0.0025 1 1 2.5 0.005 114 5 1 1 
-0.21125 0 0 0.0025 1 1 2.5 0.005 115 5 1 1 
-0.20875 0 0 0.0025 1 1 2.5 0.005 116 5 1 1 
-0.20625 0 0 0.0025 1 1 2.5 0.005 117 5 1 1 
-0.20375 0 0 0.0025 1 1 2.5 0.005 118 5 1 1 
-0.20125 0 0 0.0025 1 1 2.5 0.005 119 5 1 1 
-0.19875 0 0 0.0025 1 1 2.5 0.005 120 5 1 1 
-0.19625 0 0 0.0025 1 1 2.5 0.005 121 5 1 1 
-0.19375 0 0 0.0025 1 1 2.5 0.005 122 5 1 1 
-0.19125 0 0 0.0025 1 1 2.5 0.005 123 5 1 1 
-0.18875 0 0 0.0025 1 1 2.5 0.005 124 5 1 1 
-0.18625 0 0 0.0025 1 1 2.5 0.005 125 5 1 1 
-0.18375 0 0 0.0025 1 1 2.5 0.005 126 5 1 1 
-0.18125 0 0 0.0025 1 1 2.5 0.005 127 5 1 1 
-0.17875 0 0 0.0025 1 1 2.5 0.005 128 5 1 1 
-0.17625 0 0 0.0025 1 1 2.5 0.005 129 5 1 1 
-0.17375 0 0 0.0025 1 1 2.5 0.005 130 5 1 1 
-0.17125 0 0 0.0025 1 1 2.5 0.005 131 5 1 1 
-0.16875 0 0 0.0025 1 1 2.5 0.005 132 5 1 1 
-0.16625 0 0 0.0025 1 1 2.5 0.005 133 5 1 1 
-0.16375 0 0 0.0025 1 1 2.5 0.005 134 5 1 1 
-0.16125 0 0 0.0025 1 1 2.5 0.005 135 5 1 1 
-0.15875 0 0 0.0025 1 1 2.5 0.005 136 5 1 1 
-0.15625 0 0 0.0025 1 1 2.5 0.005 137 5 1 1 
-0.15375 0 0 0.0025 1 1 2.5 0.005 138 5 1 1 
-0.15125 0 0 0.0025 1 1 2.5 0.005 139 5 1 1 
-0.14875 0 0 0.0025 1 1 2.5 0.005 140 5 1 1 
-0.14625 0 0 0.0025 1 1 2.5 0.005 141 5 1 1 
-0.14375 0 0 0.0025 1 1 2.5 0.005 142 5 1 1 
-0.14125 0 0 0.0025 1 1 2.5 0.005 143 5 1 1 
-0.13875 0 0 0.0025 1 1 2.5 0.005 144 5 1 1 
-0.13625 0 0 0.0025 1 1 2.5 0.005 145 5 1 1 
-0.13375 0 0 0.0025 1 1 2.5 0.005 146 5 1 1 
-0.13125 0 0 0.0025 1 1 2.5 0.005 147 5 1 1 
-0.12875 0 0 0.0025 1 1 2.5 0.005 148 5 1 1 
-0.12625 0 0 0.0025 1 1 2.5 0.005 149 5 1 1 
-0.12375 0 0 0.0025 1 1 2.5 0.005 150 5 1 1 
-0.12125 0 0 0.0025 1 1 2.5 0.005 151 5 1 1 
-0.11875 0 0 0.0025 1 1 2.5 0.005 152 5 1 1 
-0.11625 0 0 0.0025 1 1 2.5 0.005 153 5 1 1 
-0.11375 0 0 0.0025 1 1 2.5 0.005 154 5 1 1 
-0.11125 0 0 0.0025 1 1 2.5 0.005 155 5 1 1 
-0.10875 0 0 0.0025 1 1 2.5 0.005 156 5 1 1 
-0.10625 0 0 0.0025 1 1 2.5 0.005 157 5 1 1 
-0.10375 0 0 0.0025 1 1 2.5 0.005 158 5 1 1 
-0.10125 0 0 0.0025 1 1 2.5 0.005 159 5 1 1 
-0.09875 0 0 0.0025 1 1 2.5 0.005 160 5 1 1 
-0.09625 0 0 0.0025 1 1 2.5 0.005 161 5 1 1 
-0.09375 0 0 0.0025 1 1 2.5 0.005 162 5 1 1 
-0.09125 0 0 0.0025 1 1 2.5 0.005 163 5 1 1 
-0.08875 0 0 0.0025 1 1 2.5 0.005 164 5 1 1 
-0.08625 0 0 0.0025 1 1 2.5 0.005 165 5 1 1 
-0.08375 0 0 0.0025 1 1 2.5 0.005 166 5 1 1 
-0.08125 0 0 0.0025 1 1 2.5 0.005 167 5 1 1 
-0.07875 0 0 0.0025 1 1 2.5 0.005 168 5 1 1 
-0.07625 0 0 0.0025 1 1 2.5 0.005 169 5 1 1 
-0.07375 0 0 0.0025 1 1 2.5 0.005 170 5 1 1 
-0.07125 0 0 0.0025 1 1 2.5 0.005 171 5 1 1 
-0.06875 0 0 0.0025 1 1 2.5 0.005 172 5 1 1 
-0.06625 0 0 0.0025 1 1 2.5 0.005 173 5 1 1 
-0.06375 0 0 0.0025 1 1 2.5 0.005 174 5 1 1 
-0.06125 0 0 0.0025 1 1 2.5 0.005 175 5 1 1 
-0.05875 0 0 0.0025 1 1 2.5 0.005 176 5 1 1 
-0.05625 -9.63153e-47 -1.12104e-44 0.0025 1 1 2.5 0.005 177 5 1 1 
-0.05375 -1.34741e-16 -1.12104e-44 0.0025 1 1 2.5 0.005 178 5 1 1 
-0.05125 -3.01625e-16 0 0.0025 1 1 2.5 0.005 179 5 1 1 
-0.04875 -4.84388e-16 -5.68434e-14 0.0025 1 1 2.5 0.005 180 5 1 1 
-0.04625 -6.98261e-16 -2.24208e-44 0.0025 1 1 2.5 0.005 181 5 1 1 
-0.04375 -9.60178e-16 -4.48416e-44 0.0025 1 1 2.5 0.005 182 5 1 1 
-0.04125 -1.48433e-15 -3.36312e-44 0.0025 1 1 2.5 0.005 183 5 1 1 
-0.03875 -2.01879e-15 -5.68434e-14 0.0025 1 1 2.5 0.005 184 5 1 1 
-0.03625 -2.46058e-15 -5.68434e-14 0.0025 1 1 2.5 0.005 185 5 1 1 
-0.03375 -4.17864e-15 5.68434e-14 0.0025 1 1 2.5 0.005 186 4 1 1 
-0.03125 -4.89249e-16 6.31089e-28 0.0025 1 1 2.5 0.005 187 3 1 1 
-0.02875 -7.10611e-16 -8.96831e-44 0.0025 1 1 2.5 0.005 188 3 1 1 
-0.02625 -1.13896e-15 -6.31089e-28 0.0025 1 1 2.5 0.005 189 3 1 1 
-0.02375 1.81369e-15 -1.13687e-13 0.0025 1 1 2.5 0.005 190 4 1 1 
-0.02125 7.06877e-16 5.91646e-28 0.0025 1 1 2.5 0.005 191 5 1 1 
-0.01875 1.28826e-15 2.84217e-13 0.0025 1 1 2.5 0.005 192 5 1 1 
-0.01625 8.03537e-16 -1.7053e-13 0.0025 1 1 2.5 0.005 193 4 1 1 
-0.01375 -1.7808e-16 -1.47911e-28 0.0025 1 1 2.5 0.005 194 4 1 1 
-0.01125 1.28731e-15 -7.95808e-13 0.0025 1 1 2.5 0.005 195 3 1 1 
-0.00875 1.37309e-15 6.82121e-13 0.0025 1 1 2.5 0.005 196 4 1 1 
-0.00625 1.39605e-16 5.68434e-14 0.0025 1 1 2.5 0.005 197 4 1 1 
-0.00375 8.47488e-17 5.68434e-14 0.0025 1 1 2.5 0.005 198 3 1 1 
-0.00125 -3.50343e-17 -1.13687e-13 0.0025 1 1 2.5 0.005 199 4 1 1 
0.00125 -4.38633e-16 -2.27374e-13 0.0025 1 1 2.5 0.005 200 3 1 1 
0.00375 -2.93573e-16 3.97904e-13 0.0025 1 1 2.5 0.005 201 3 1 1 
0.00625 -5.15487e-16 -1.7053e-13 0.0025 1 1 2.5 0.005 202 4 1 1 
0.00875 -2.99064e-16 1.13687e-13 0.0025 1 1 2.5 0.005 203 3 1 1 
0.01125 -2.47539e-16 -5.68434e-14 0.0025 1 1 2.5 0.005 204 3 1 1 
0.01375 -1.25218e-15 -5.68434e-14 0.0025 1 1 2.5 0.005 205 3 1 1 
0.01625 9.29618e-16 6.31089e-28 0.0025 1 1 2.5 0.005 206 4 1 1 
0.01875 -1.06726e-15 0 0.0025 1 1 2.5 0.005 207 5 1 1 
0.02125 -2.85711e-15 -2.27374e-13 0.0025 1 1 2.5 0.005 208 4 1 1 
0.02375 6.22906e-16 6.82121e-13 0.0025 1 1 2.5 0.005 209 3 1 1 
0.02625 -9.45109e-16 -2.27374e-13 0.0025 1 1 2.5 0.005 210 4 1 1 
0.02875 7.87677e-16 -6.31089e-28 0.0025 1 1 2.5 0.005 211 3 1 1 
0.03125 4.19291e-15 -1.13687e-13 0.0025 1 1 2.5 0.005 212 4 1 1 
0.03375 2.6102e-15 5.52203e-28 0.0025 1 1 2.5 0.005 213 5 1 1 
0.03625 2.1513e-15 5.68434e-14 0.0025 1 1 2.5 0.005 214 5 1 1 
0.03875 1.61795e-15 -1.13687e-13 0.0025 1 1 2.5 0.005 215 5 1 1 
0.04125 1.09391e-15 1.13687e-13 0.0025 1 1 2.5 0.005 216 5 1 1 
0.04375 7.31766e-16 2.24208e-44 0.0025 1 1 2.5 0.005 217 5 1 1 
0.04625 4.84045e-16 5.68434e-14 0.0025 1 1 2.5 0.005 218 5 1 1 
0.04875 3.18574e-16 -5.68434e-14 0.0025 1 1 2.5 0.005 219 5 1 1 
0.05125 1.51448e-16 5.68434e-14 0.0025 1 1 2.5 0.005 220 5 1 1 
0.05375 1.02936e-46 1.12104e-44 0.0025 1 1 2.5 0.005 221 5 1 1 
0.05625 0 0 0.0025 1 1 2.5 0.005 222 5 1 1 
0.05875 0 0 0.0025 1 1 2.5 0.005 223 5 1 1 
0.06125 0 0 0.0025 1 1 2.5 0.005 224 5 1 1 
0.06375 0 0 0.0025 1 1 2.5 0.005 225 5 1 1 
0.06625 0 0 0.0025 1 1 2.5 0.005 226 5 1 1 
0.06875 0 0 0.0025 1 1 2.5 0.005 227 5 1 1 
0.07125 0 0 0.0025 1 1 2.5 0.005 228 5 1 1 
0.07375 0 0 0.0025 1 1 2.5 0.005 229 5 1 1 
0.07625 0 0 0.0025 1 1 2.5 0.005 230 5 1 1 
0.07875 0 0 0.0025 1 1 2.5 0.005 231 5 1 1 
0.08125 0 0 0.0025 1 1 2.5 0.005 232 5 1 1 
0.08375 0 0 0.0025 1 1 2.5 0.005 233 5 1 1 
0.08625 0 0 0.0025 1 1 2.5 0.005 234 5 1 1 
0.08875 0 0 0.0025 1 1 2.5 0.005 235 5 1 1 
0.09125 -1.29436e-46 -1.12104e-44 0.0025 1 1 2.5 0.005 236 5 1 1 
0.09375 -3.35691e-17 -1.12104e-44 0.0025 1 1 2.5 0.005 237 5 1 1 
0.09625 -2.00225e-16 1.12104e-44 0.0025 1 1 2.5 0.005 238 5 1 1 
0.09875 -3.32868e-16 1.12104e-44 0.0025 1 1 2.5 0.005 239 5 1 1 
0.10125 -3.61907e-16 0 0.0025 1 1 2.5 0.005 240 5 1 1 
0.10375 -5.40425e-16 5.68434e-14 0.0025 1 1 2.5 0.005 241 5 1 1 
0.10625 1.98999e-15 5.68434e-14 0.0025 1 1 2.5 0.005 242 5 1 1 
0.10875 1.05073e-15 1.13687e-13 0.0025 1 1 2.5 0.005 243 5 1 1 
0.11125 6.49433e-16 5.68434e-14 0.0025 1 1 2.5 0.005 244 5 1 1 
0.11375 -1.66516e-15 -5.68434e-14 0.0025 1 1 2.5 0.005 245 5 1 1 
0.11625 4.4109e-15 -2.27374e-13 0.0025 1 1 2.5 0.005 246 5 1 1 
0.11875 1.01807e-15 -1.13687e-13 0.0025 1 1 2.5 0.005 247 5 1 1 
0.12125 4.75277e-16 4.54747e-13 0.0025 1 1 2.5 0.005 248 5 1 1 
0.12375 -3.53473e-15 5.68434e-13 0.0025 1 1 2.5 0.005 249 4 1 1 
0.12625 3.53473e-15 -5.68434e-13 0.0025 1 1 2.5 0.005 250 4 1 1 
0.12875 -4.75277e-16 -4.54747e-13 0.0025 1 1 2.5 0.005 251 5 1 1 
0.13125 -1.01807e-15 1.13687e-13 0.0025 1 1 2.5 0.005 252 5 1 1 
0.13375 -4.4109e-15 2.27374e-13 0.0025 1 1 2.5 0.005 253 5 1 1 
0.13625 1.66516e-15 5.68434e-14 0.0025 1 1 2.5 0.005 254 5 1 1 
0.13875 -6.49433e-16 -5.68434e-14 0.0025 1 1 2.5 0.005 255 5 1 1 
0.14125 -1.05073e-15 -1.13687e-13 0.0025 1 1 2.5 0.005 256 5 1 1 
0.14375 -1.98999e-15 -5.68434e-14 0.0025 1 1 2.5 0.005 257 5 1 1 
0.14625 5.40425e-16 -5.68434e-14 0.0025 1 1 2.5 0.005 258 5 1 1 
0.14875 3.61907e-16 0 0.0025 1 1 2.5 0.005 259 5 1 1 
0.15125 3.32868e-16 -1.12104e-44 0.0025 1 1 2.5 0.005 260 5 1 1 
0.15375 2.00225e-16 -1.12104e-44 0.0025 1 1 2.5 0.005 261 5 1 1 
0.15625 3.35691e-17 1.12104e-44 0.0025 1 1 2.5 0.005 262 5 1 1 
0.15875 1.29436e-46 1.12104e-44 0.0025 1 1 2.5 0.005 263 5 1 1 
0.16125 0 0 0.0025 1 1 2.5 0.005 264 5 1 1 
0.16375 0 0 0.0025 1 1 2.5 0.005 265 5 1 1 
0.16625 0 0 0.0025 1 1 2.5 0.005 266 5 1 1 
0.16875 0 0 0.0025 1 1 2.5 0.005 267 5 1 1 
0.17125 0 0 0.0025 1 1 2.5 0.005 268 5 1 1 
0.17375 0 0 0.0025 1 1 2.5 0.005 269 5 1 1 
0.17625 0 0 0.0025 1 1 2.5 0.005 270 5 1 1 
0.17875 0 0 0.0025 1 1 2.5 0.005 271 5 1 1 
0.18125 0 0 0.0025 1 1 2.5 0.005 272 5 1 1 
0.18375 0 0 0.0025 1 1 2.5 0.005 273 5 1 1 
0.18625 0 0 0.0025 1 1 2.5 0.005 274 5 1 1 
0.18875 0 0 0.0025 1 1 2.5 0.005 275 5 1 1 
0.19125 0 0 0.0025 1 1 2.5 0.005 276 5 1 1 
0.19375 0 0 0.0025 1 1 2.5 0.005 277 5 1 1 
0.19625 0 0 0.0025 1 1 2.5 0.005 278 5 1 1 
0.19875 0 0 0.0025 1 1 2.5 0.005 279 5 1 1 
0.20125 0 0 0.0025 1 1 2.5 0.005 280 5 1 1 
0.20375 -3.32788e-48 -1.12104e-44 0.0025 1 1 2.5 0.005 281 5 1 1 
0.20625 -1.68744e-17 -5.68434e-14 0.0025 1 1 2.5 0.005 282 5 1 1 
0.20875 -1.85238e-16 5.68434e-14 0.0025 1 1 2.5 0.005 283 5 1 1 
0.21125 -3.8654e-16 -5.68434e-14 0.0025 1 1 2.5 0.005 284 5 1 1 
0.21375 -6.71232e-16 -2.24208e-44 0.0025 1 1 2.5 0.005 285 5 1 1 
0.21625 -1.13905e-15 -2.24208e-44 0.0025 1 1 2.5 0.005 286 5 1 1 
0.21875 -1.63709e-15 -2.24208e-44 0.0025 1 1 2.5 0.005 287 5 1 1 
0.22125 -2.1308e-15 5.60519e-44 0.0025 1 1 2.5 0.005 288 5 1 1 
0.22375 -2.60197e-15 5.68434e-14 0.0025 1 1 2.5 0.005 289 5 1 1 
0.22625 -1.98514e-16 6.82121e-13 0.0025 1 1 2.5 0.005 290 5 1 1 
0.22875 -1.26399e-15 5.68434e-13 0.0025 1 1 2.5 0.005 291 5 1 1 
0.23125 -4.21076e-16 -6.82121e-13 0.0025 1 1 2.5 0.005 292 5 1 1 
0.23375 -2.38572e-15 -5.68434e-13 0.0025 1 1 2.5 0.005 293 5 1 1 
0.23625 -2.29201e-15 2.84217e-13 0.0025 1 1 2.5 0.005 294 5 1 1 
0.23875 -5.91923e-15 5.68434e-13 0.0025 1 1 2.5 0.005 295 5 1 1 
0.24125 4.39516e-15 -1.7053e-13 0.0025 1 1 2.5 0.005 296 5 1 1 
0.24375 -1.23905e-15 -1.13687e-13 0.0025 1 1 2.5 0.005 297 5 1 1 
0.24625 -4.84373e-16 -2.27374e-13 0.0025 1 1 2.5 0.005 298 5 1 1 
0.24875 -7.8354e-15 -5.68434e-14 0.0025 1 1 2.5 0.005 299 3 1 1 
0.25125 7.8354e-15 5.68434e-14 0.0025 1 1 2.5 0.005 300 3 1 1 
0.25375 4.84373e-16 2.27374e-13 0.0025 1 1 2.5 0.005 301 5 1 1 
0.25625 1.23905e-15 1.13687e-13 0.0025 1 1 2.5 0.005 302 5 1 1 
0.25875 -4.39516e-15 1.7053e-13 0.0025 1 1 2.5 0.005 303 5 1 1 
0.26125 5.91923e-15 -5.68434e-13 0.0025 1 1 2.5 0.005 304 5 1 1 
0.26375 2.29201e-15 -2.84217e-13 0.0025 1 1 2.5 0.005 305 5 1 1 
0.26625 2.38572e-15 5.68434e-13 0.0025 1 1 2.5 0.005 306 5 1 1 
0.26875 4.21076e-16 6.82121e-13 0.0025 1 1 2.5 0.005 307 5 1 1 
0.27125 1.26399e-15 -5.68434e-13 0.0025 1 1 2.5 0.005 308 5 1 1 
0.27375 1.98514e-16 -6.82121e-13 0.0025 1 1 2.5 0.005 309 5 1 1 
0.27625 2.60197e-15 -5.68434e-14 0.0025 1 1 2.5 0.005 310 5 1 1 
0.27875 2.1308e-15 -5.60519e-44 0.0025 1 1 2.5 0.005 311 5 1 1 
0.28125 1.63709e-15 2.24208e-44 0.0025 1 1 2.5 0.005 312 5 1 1 
0.28375 1.13905e-15 2.24208e-44 0.0025 1 1 2.5 0.005 313 5 1 1 
0.28625 6.71232e-16 2.24208e-44 0.0025 1 1 2.5 0.005 314 5 1 1 
0.28875 3.8654e-16 5.68434e-14 0.0025 1 1 2.5 0.005 315 5 1 1 
0.29125 1.85238e-16 -5.68434e-14 0.0025 1 1 2.5 0.005 316 5 1 1 
0.29375 1.68744e-17 5.68434e-14 0.0025 1 1 2.5 0.005 317 5 1 1 
0.29625 3.32788e-48 1.12104e-44 0.0025 1 1 2.5 0.005 318 5 1 1 
0.29875 0 0 0.0025 1 1 2.5 0.005 319 5 1 1 
0.30125 0 0 0.0025 1 1 2.5 0.005 320 5 1 1 
0.30375 0 0 0.0025 1 1 2.5 0.005 321 5 1 1 
0.30625 0 0 0.0025 1 1 2.5 0.005 322 5 1 1 
0.30875 0 0 0.0025 1 1 2.5 0.005 323 5 1 1 
0.31125 0 0 0.0025 1 1 2.5 0.005 324 5 1 1 
0.31375 0 0 0.0025 1 1 2.5 0.005 325 5 1 1 
0.31625 0 0 0.0025 1 1 2.5 0.005 326 5 1 1 
0.31875 0 0 0.0025 1 1 2.5 0.005 327 5 1 1 
0.32125 0 0 0.0025 1 1 2.5 0.005 328 5 1 1 
0.32375 0 0 0.0025 1 1 2.5 0.005 329 5 1 1 
0.32625 0 0 0.0025 1 1 2.5 0.005 330 5 1 1 
0.32875 0 0 0.0025 1 1 2.5 0.005 331 5 1 1 
0.33125 0 0 0.0025 1 1 2.5 0.005 332 5 1 1 
0.33375 0 0 0.0025 1 1 2.5 0.005 333 5 1 1 
0.33625 0 0 0.0025 1 1 2.5 0.005 334 5 1 1 
0.33875 0 0 0.0025 1 1 2.5 0.005 335 5 1 1 
0.34125 0 0 0.0025 1 1 2.5 0.005 336 5 1 1 
0.34375 0 0 0.0025 1 1 2.5 0.005 337 5 1 1 
0.34625 0 0 0.0025 1 1 2.5 0.005 338 5 1 1 
0.34875 0 0 0.0025 1 1 2.5 0.005 339 5 1 1 
0.35125 -7.31985e-47 -1.56945e-43 0.0025 1 1 2.5 0.005 340 5 1 1 
0.35375 -3.37434e-16 -7.95808e-13 0.0025 1 1 2.5 0.005 341 5 1 1 
0.35625 -3.05318e-15 -6.19593e-12 0.0025 1 1 2.5 0.005 342 5 1 1 
