# Time [s]: 0.0522618
# Columns: pos [m], vel [m/s], acc [m/s^2], mass [kg], dens [kg/m^3], pres [Pa], ene [J/kg], sml [m], id, neighbor, alpha, gradh, ...additional?
-0.617826 -2.83954 -9.81589 0.0025 0.0543831 0.0189353 0.870483 0.0919403 0 5 1 1.04191 
-0.579949 -2.24197 -11.6271 0.0025 0.0944241 0.0366799 0.971175 0.0529526 1 5 1 0.978584 
-0.558097 -1.89843 -12.6138 0.0025 0.141369 0.0647125 1.14443 0.0353686 2 4 1 0.948854 
-0.542796 -1.659 -13.2935 0.0025 0.189156 0.0972904 1.28588 0.0264332 3 4 1 0.952629 
-0.530992 -1.47514 -13.8008 0.0025 0.235505 0.132186 1.40325 0.021231 4 4 1 0.961124 
-0.521272 -1.3243 -14.2428 0.0025 0.279529 0.168004 1.50261 0.0178872 5 4 1 0.968784 
-0.512951 -1.1951 -14.6853 0.0025 0.321883 0.204674 1.5897 0.0155336 6 4 1 0.974752 
-0.505647 -1.08142 -15.0419 0.0025 0.363027 0.242195 1.66793 0.0137731 7 4 1 0.979176 
-0.499119 -0.979762 -15.4398 0.0025 0.403252 0.280561 1.73942 0.0123992 8 4 1 0.982574 
-0.493207 -0.887044 -15.7801 0.0025 0.442773 0.319778 1.80559 0.0112925 9 4 1 0.985186 
-0.487797 -0.802043 -16.1462 0.0025 0.481715 0.359816 1.86742 0.0103796 10 4 1 0.987324 
-0.482805 -0.723263 -16.3799 0.0025 0.520104 0.400574 1.92551 0.00961346 11 4 1 0.989037 
-0.478167 -0.65002 -16.6461 0.0025 0.557941 0.441942 1.98029 0.00896152 12 4 1 0.990469 
-0.473831 -0.58166 -16.8118 0.0025 0.595238 0.483834 2.03216 0.0084 13 4 1 0.991659 
-0.469757 -0.51754 -16.9667 0.0025 0.631966 0.526125 2.08136 0.00791182 14 4 1 0.992659 
-0.465911 -0.457239 -17.081 0.0025 0.668138 0.568749 2.12817 0.00748349 15 4 1 0.993499 
-0.462267 -0.400329 -17.1859 0.0025 0.703762 0.61164 2.17281 0.00710467 16 4 1 0.994208 
-0.458801 -0.346501 -17.2868 0.0025 0.738868 0.654766 2.21549 0.00676711 17 4 1 0.994835 
-0.455495 -0.295432 -17.2873 0.0025 0.773418 0.698019 2.25633 0.00646481 18 4 1 0.995389 
-0.452333 -0.246983 -17.2275 0.0025 0.807346 0.741247 2.29538 0.00619313 19 4 1 0.995823 
-0.449299 -0.200969 -17.3992 0.0025 0.840793 0.784574 2.33291 0.00594677 20 4 1 0.996149 
-0.446383 -0.156399 -17.8915 0.0025 0.87403 0.828358 2.36938 0.00572062 21 4 1 0.996719 
-0.443576 -0.113785 -16.7962 0.0025 0.906085 0.871273 2.4038 0.00551824 22 4 1 0.997708 
-0.440863 -0.0786725 -12.6733 0.0025 0.934193 0.909211 2.43319 0.00535221 23 4 1 0.997752 
-0.438223 -0.0493123 -15.0748 0.0025 0.961132 0.945815 2.46079 0.0052022 24 4 1 0.996097 
-0.435659 -0.00457885 -26.8236 0.0025 0.99692 0.995891 2.49743 0.00501545 25 4 1 0.99702 
-0.433205 0.0469422 -18.8024 0.0025 1.03378 1.04841 2.53434 0.00483663 26 4 1 0.99995 
-0.430822 0.0628014 -0.212541 0.0025 1.04982 1.071 2.54972 0.00476273 27 3 1 1 
-0.428442 0.0573068 4.13683 0.0025 1.04645 1.06585 2.54617 0.00477806 28 4 1 1.00002 
-0.426044 0.0467879 5.64863 0.0025 1.03734 1.05279 2.53717 0.00482001 29 4 1 0.999797 
-0.423622 0.0347252 6.03392 0.0025 1.02727 1.03842 2.52717 0.00486729 30 4 1 0.999723 
-0.421176 0.0233808 5.33916 0.0025 1.01813 1.02545 2.51806 0.00491097 31 4 1 0.999755 
-0.418711 0.0143014 4.04394 0.0025 1.011 1.01538 2.51094 0.00494561 32 4 1 0.999841 
-0.416231 0.0079896 2.67681 0.0025 1.00611 1.00852 2.50607 0.00496962 33 4 1 0.999922 
-0.413741 0.00410514 1.58045 0.0025 1.00313 1.00435 2.50311 0.00498438 34 4 1 0.99997 
-0.411246 0.00195135 0.84619 0.0025 1.00149 1.00206 2.50147 0.00499257 35 4 1 0.999991 
-0.408748 0.000860961 0.415368 0.0025 1.00066 1.00091 2.50065 0.00499672 36 4 1 0.999998 
-0.406249 0.000352833 0.187971 0.0025 1.00027 1.00037 2.50026 0.00499865 37 4 1 0.999999 
-0.40375 0.000134115 0.0785454 0.0025 1.0001 1.00014 2.5001 0.00499949 38 4 1 1 
-0.40125 4.71378e-05 0.0302728 0.0025 1.00004 1.00005 2.50004 0.00499982 39 4 1 1 
-0.39875 1.52474e-05 0.0107293 0.0025 1.00001 1.00002 2.50001 0.00499994 40 4 1 1 
-0.39625 4.50842e-06 0.00347955 0.0025 1 1 2.5 0.00499998 41 4 1 1 
-0.39375 1.20666e-06 0.0010249 0.0025 1 1 2.5 0.005 42 4 1 1 
-0.39125 2.87989e-07 0.000271099 0.0025 1 1 2.5 0.005 43 4 1 1 
-0.38875 5.98004e-08 6.32355e-05 0.0025 1 1 2.5 0.005 44 4 1 1 
-0.38625 1.0324e-08 1.25972e-05 0.0025 1 1 2.5 0.005 45 4 1 1 
-0.38375 1.33706e-09 2.0064e-06 0.0025 1 1 2.5 0.005 46 4 1 1 
-0.38125 8.92558e-11 2.12428e-07 0.0025 1 1 2.5 0.005 47 4 1 1 
-0.37875 -5.2843e-12 -3.0343e-09 0.0025 1 1 2.5 0.005 48 4 1 1 
-0.37625 1.22585e-12 -1.73128e-09 0.0025 1 1 2.5 0.005 49 5 1 1 
-0.37375 1.01721e-12 5.50642e-10 0.0025 1 1 2.5 0.005 50 3 1 1 
-0.37125 3.09215e-13 2.51134e-10 0.0025 1 1 2.5 0.005 51 4 1 1 
-0.36875 7.02885e-14 1.0084e-10 0.0025 1 1 2.5 0.005 52 4 1 1 
-0.36625 1.78368e-15 3.75167e-12 0.0025 1 1 2.5 0.005 53 5 1 1 
-0.36375 2.01949e-16 6.82121e-13 0.0025 1 1 2.5 0.005 54 5 1 1 
-0.36125 3.98275e-47 1.34525e-43 0.0025 1 1 2.5 0.005 55 5 1 1 
-0.35875 0 0 0.0025 1 1 2.5 0.005 56 5 1 1 
-0.35625 0 0 0.0025 1 1 2.5 0.005 57 5 1 1 
-0.35375 0 0 0.0025 1 1 2.5 0.005 58 5 1 1 
-0.35125 0 0 0.0025 1 1 2.5 0.005 59 5 1 1 
-0.34875 0 0 0.0025 1 1 2.5 0.005 60 5 1 1 
-0.34625 0 0 0.0025 1 1 2.5 0.005 61 5 1 1 
-0.34375 0 0 0.0025 1 1 2.5 0.005 62 5 1 1 
-0.34125 0 0 0.0025 1 1 2.5 0.005 63 5 1 1 
-0.33875 0 0 0.0025 1 1 2.5 0.005 64 5 1 1 
-0.33625 0 0 0.0025 1 1 2.5 0.005 65 5 1 1 
-0.33375 0 0 0.0025 1 1 2.5 0.005 66 5 1 1 
-0.33125 0 0 0.0025 1 1 2.5 0.005 67 5 1 1 
-0.32875 0 0 0.0025 1 1 2.5 0.005 68 5 1 1 
-0.32625 0 0 0.0025 1 1 2.5 0.005 69 5 1 1 
-0.32375 0 0 0.0025 1 1 2.5 0.005 70 5 1 1 
-0.32125 0 0 0.0025 1 1 2.5 0.005 71 5 1 1 
-0.31875 0 0 0.0025 1 1 2.5 0.005 72 5 1 1 
-0.31625 0 0 0.0025 1 1 2.5 0.005 73 5 1 1 
-0.31375 0 0 0.0025 1 1 2.5 0.005 74 5 1 1 
-0.31125 0 0 0.0025 1 1 2.5 0.005 75 5 1 1 
-0.30875 0 0 0.0025 1 1 2.5 0.005 76 5 1 1 
-0.30625 0 0 0.0025 1 1 2.5 0.005 77 5 1 1 
-0.30375 0 0 0.0025 1 1 2.5 0.005 78 5 1 1 
-0.30125 0 0 0.0025 1 1 2.5 0.005 79 5 1 1 
-0.29875 0 0 0.0025 1 1 2.5 0.005 80 5 1 1 
-0.29625 0 0 0.0025 1 1 2.5 0.005 81 5 1 1 
-0.29375 0 0 0.0025 1 1 2.5 0.005 82 5 1 1 
-0.29125 0 0 0.0025 1 1 2.5 0.005 83 5 1 1 
-0.28875 0 0 0.0025 1 1 2.5 0.005 84 5 1 1 
-0.28625 0 0 0.0025 1 1 2.5 0.005 85 5 1 1 
-0.28375 0 0 0.0025 1 1 2.5 0.005 86 5 1 1 
-0.28125 0 0 0.0025 1 1 2.5 0.005 87 5 1 1 
-0.27875 0 0 0.0025 1 1 2.5 0.005 88 5 1 1 
-0.27625 0 0 0.0025 1 1 2.5 0.005 89 5 1 1 
-0.27375 0 0 0.0025 1 1 2.5 0.005 90 5 1 1 
-0.27125 0 0 0.0025 1 1 2.5 0.005 91 5 1 1 
-0.26875 0 0 0.0025 1 1 2.5 0.005 92 5 1 1 
-0.26625 0 0 0.0025 1 1 2.5 0.005 93 5 1 1 
-0.26375 0 0 0.0025 1 1 2.5 0.005 94 5 1 1 
-0.26125 0 0 0.0025 1 1 2.5 0.005 95 5 1 1 
-0.25875 0 0 0.0025 1 1 2.5 0.005 96 5 1 1 
-0.25625 0 0 0.0025 1 1 2.5 0.005 97 5 1 1 
-0.25375 0 0 0.0025 1 1 2.5 0.005 98 5 1 1 
-0.25125 0 0 0.0025 1 1 2.5 0.005 99 5 1 1 
-0.24875 0 0 0.0025 1 1 2.5 0.005 100 5 1 1 
-0.24625 0 0 0.0025 1 1 2.5 0.005 101 5 1 1 
-0.24375 0 0 0.0025 1 1 2.5 0.005 102 5 1 1 
-0.24125 0 0 0.0025 1 1 2.5 0.005 103 5 1 1 
-0.23875 0 0 0.0025 1 1 2.5 0.005 104 5 1 1 
-0.23625 0 0 0.0025 1 1 2.5 0.005 105 5 1 1 
-0.23375 0 0 0.0025 1 1 2.5 0.005 106 5 1 1 
-0.23125 0 0 0.0025 1 1 2.5 0.005 107 5 1 1 
-0.22875 0 0 0.0025 1 1 2.5 0.005 108 5 1 1 
-0.22625 0 0 0.0025 1 1 2.5 0.005 109 5 1 1 
-0.22375 0 0 0.0025 1 1 2.5 0.005 110 5 1 1 
-0.22125 0 0 0.0025 1 1 2.5 0.005 111 5 1 1 
-0.21875 0 0 0.0025 1 1 2.5 0.005 112 5 1 1 
-0.21625 0 0 0.0025 1 1 2.5 0.005 113 5 1 1 
-0.21375 0 0 0.0025 1 1 2.5 0.005 114 5 1 1 
-0.21125 0 0 0.0025 1 1 2.5 0.005 115 5 1 1 
-0.20875 0 0 0.0025 1 1 2.5 0.005 116 5 1 1 
-0.20625 0 0 0.0025 1 1 2.5 0.005 117 5 1 1 
-0.20375 0 0 0.0025 1 1 2.5 0.005 118 5 1 1 
-0.20125 0 0 0.0025 1 1 2.5 0.005 119 5 1 1 
-0.19875 0 0 0.0025 1 1 2.5 0.005 120 5 1 1 
-0.19625 0 0 0.0025 1 1 2.5 0.005 121 5 1 1 
-0.19375 0 0 0.0025 1 1 2.5 0.005 122 5 1 1 
-0.19125 0 0 0.0025 1 1 2.5 0.005 123 5 1 1 
-0.18875 0 0 0.0025 1 1 2.5 0.005 124 5 1 1 
-0.18625 0 0 0.0025 1 1 2.5 0.005 125 5 1 1 
-0.18375 0 0 0.0025 1 1 2.5 0.005 126 5 1 1 
-0.18125 0 0 0.0025 1 1 2.5 0.005 127 5 1 1 
-0.17875 0 0 0.0025 1 1 2.5 0.005 128 5 1 1 
-0.17625 0 0 0.0025 1 1 2.5 0.005 129 5 1 1 
-0.17375 0 0 0.0025 1 1 2.5 0.005 130 5 1 1 
-0.17125 0 0 0.0025 1 1 2.5 0.005 131 5 1 1 
-0.16875 0 0 0.0025 1 1 2.5 0.005 132 5 1 1 
-0.16625 0 0 0.0025 1 1 2.5 0.005 133 5 1 1 
-0.16375 0 0 0.0025 1 1 2.5 0.005 134 5 1 1 
-0.16125 0 0 0.0025 1 1 2.5 0.005 135 5 1 1 
-0.15875 0 0 0.0025 1 1 2.5 0.005 136 5 1 1 
-0.15625 0 0 0.0025 1 1 2.5 0.005 137 5 1 1 
-0.15375 0 0 0.0025 1 1 2.5 0.005 138 5 1 1 
-0.15125 0 0 0.0025 1 1 2.5 0.005 139 5 1 1 
-0.14875 0 0 0.0025 1 1 2.5 0.005 140 5 1 1 
-0.14625 0 0 0.0025 1 1 2.5 0.005 141 5 1 1 
-0.14375 0 0 0.0025 1 1 2.5 0.005 142 5 1 1 
-0.14125 0 0 0.0025 1 1 2.5 0.005 143 5 1 1 
-0.13875 0 0 0.0025 1 1 2.5 0.005 144 5 1 1 
-0.13625 0 0 0.0025 1 1 2.5 0.005 145 5 1 1 
-0.13375 0 0 0.0025 1 1 2.5 0.005 146 5 1 1 
-0.13125 0 0 0.0025 1 1 2.5 0.005 147 5 1 1 
-0.12875 0 0 0.0025 1 1 2.5 0.005 148 5 1 1 
-0.12625 0 0 0.0025 1 1 2.5 0.005 149 5 1 1 
-0.12375 0 0 0.0025 1 1 2.5 0.005 150 5 1 1 
-0.12125 0 0 0.0025 1 1 2.5 0.005 151 5 1 1 
-0.11875 0 0 0.0025 1 1 2.5 0.005 152 5 1 1 
-0.11625 0 0 0.0025 1 1 2.5 0.005 153 5 1 1 
-0.11375 0 0 0.0025 1 1 2.5 0.005 154 5 1 1 
-0.11125 0 0 0.0025 1 1 2.5 0.005 155 5 1 1 
-0.10875 0 0 0.0025 1 1 2.5 0.005 156 5 1 1 
-0.10625 0 0 0.0025 1 1 2.5 0.005 157 5 1 1 
-0.10375 0 0 0.0025 1 1 2.5 0.005 158 5 1 1 
-0.10125 0 0 0.0025 1 1 2.5 0.005 159 5 1 1 
-0.09875 0 0 0.0025 1 1 2.5 0.005 160 5 1 1 
-0.09625 0 0 0.0025 1 1 2.5 0.005 161 5 1 1 
-0.09375 0 0 0.0025 1 1 2.5 0.005 162 5 1 1 
-0.09125 0 0 0.0025 1 1 2.5 0.005 163 5 1 1 
-0.08875 0 0 0.0025 1 1 2.5 0.005 164 5 1 1 
-0.08625 0 0 0.0025 1 1 2.5 0.005 165 5 1 1 
-0.08375 0 0 0.0025 1 1 2.5 0.005 166 5 1 1 
-0.08125 0 0 0.0025 1 1 2.5 0.005 167 5 1 1 
-0.07875 0 0 0.0025 1 1 2.5 0.005 168 5 1 1 
-0.07625 0 0 0.0025 1 1 2.5 0.005 169 5 1 1 
-0.07375 0 0 0.0025 1 1 2.5 0.005 170 5 1 1 
-0.07125 0 0 0.0025 1 1 2.5 0.005 171 5 1 1 
-0.06875 0 0 0.0025 1 1 2.5 0.005 172 5 1 1 
-0.06625 0 0 0.0025 1 1 2.5 0.005 173 5 1 1 
-0.06375 0 0 0.0025 1 1 2.5 0.005 174 5 1 1 
-0.06125 0 0 0.0025 1 1 2.5 0.005 175 5 1 1 
-0.05875 0 0 0.0025 1 1 2.5 0.005 176 5 1 1 
-0.05625 -3.6482e-47 -1.12104e-44 0.0025 1 1 2.5 0.005 177 5 1 1 
-0.05375 -5.04418e-17 -5.68434e-14 0.0025 1 1 2.5 0.005 178 5 1 1 
-0.05125 -2.17413e-16 5.68434e-14 0.0025 1 1 2.5 0.005 179 5 1 1 
-0.04875 -3.83331e-16 -5.68434e-14 0.0025 1 1 2.5 0.005 180 5 1 1 
-0.04625 -6.30807e-16 -2.24208e-44 0.0025 1 1 2.5 0.005 181 5 1 1 
-0.04375 -8.92739e-16 -4.48416e-44 0.0025 1 1 2.5 0.005 182 5 1 1 
-0.04125 -1.34959e-15 -3.36312e-44 0.0025 1 1 2.5 0.005 183 5 1 1 
-0.03875 -1.88394e-15 -5.68434e-14 0.0025 1 1 2.5 0.005 184 5 1 1 
-0.03625 -2.34267e-15 -1.13687e-13 0.0025 1 1 2.5 0.005 185 5 1 1 
-0.03375 -4.06073e-15 -3.15544e-28 0.0025 1 1 2.5 0.005 186 4 1 1 
-0.03125 -4.55722e-16 6.31089e-28 0.0025 1 1 2.5 0.005 187 3 1 1 
-0.02875 -1.01389e-15 8.96831e-44 0.0025 1 1 2.5 0.005 188 3 1 1 
-0.02625 -1.07149e-15 -6.31089e-28 0.0025 1 1 2.5 0.005 189 3 1 1 
-0.02375 2.77469e-15 5.68434e-14 0.0025 1 1 2.5 0.005 190 4 1 1 
-0.02125 1.01012e-15 0 0.0025 1 1 2.5 0.005 191 5 1 1 
-0.01875 -8.37108e-16 -2.84217e-13 0.0025 1 1 2.5 0.005 192 4 1 1 
-0.01625 2.74301e-15 1.13687e-13 0.0025 1 1 2.5 0.005 193 3 1 1 
-0.01375 1.00279e-15 1.13687e-13 0.0025 1 1 2.5 0.005 194 5 1 1 
-0.01125 -3.98705e-16 -7.88861e-29 0.0025 1 1 2.5 0.005 195 4 1 1 
-0.00875 1.23806e-15 2.46519e-28 0.0025 1 1 2.5 0.005 196 3 1 1 
-0.00625 4.59852e-16 -9.86076e-30 0.0025 1 1 2.5 0.005 197 5 1 1 
-0.00375 -3.36235e-17 0 0.0025 1 1 2.5 0.005 198 3 1 1 
-0.00125 -1.36521e-16 1.12104e-43 0.0025 1 1 2.5 0.005 199 3 1 1 
0.00125 -2.6915e-16 -3.9443e-29 0.0025 1 1 2.5 0.005 200 3 1 1 
0.00375 2.74205e-17 3.41061e-13 0.0025 1 1 2.5 0.005 201 5 1 1 
0.00625 2.41924e-16 -4.54747e-13 0.0025 1 1 2.5 0.005 202 5 1 1 
0.00875 -6.71843e-16 -9.09495e-13 0.0025 1 1 2.5 0.005 203 3 1 1 
0.01125 -1.2398e-15 1.25056e-12 0.0025 1 1 2.5 0.005 204 3 1 1 
0.01375 -1.03308e-15 -2.27374e-13 0.0025 1 1 2.5 0.005 205 4 1 1 
0.01625 -3.5056e-16 4.54747e-13 0.0025 1 1 2.5 0.005 206 4 1 1 
0.01875 -7.30558e-16 -3.41061e-13 0.0025 1 1 2.5 0.005 207 5 1 1 
0.02125 -9.69173e-16 -1.13687e-13 0.0025 1 1 2.5 0.005 208 5 1 1 
0.02375 -2.78356e-15 -3.15544e-28 0.0025 1 1 2.5 0.005 209 4 1 1 
0.02625 1.17957e-15 2.76101e-28 0.0025 1 1 2.5 0.005 210 3 1 1 
0.02875 6.5309e-16 -2.76101e-28 0.0025 1 1 2.5 0.005 211 3 1 1 
0.03125 4.22672e-15 3.15544e-28 0.0025 1 1 2.5 0.005 212 4 1 1 
0.03375 2.50898e-15 1.13687e-13 0.0025 1 1 2.5 0.005 213 5 1 1 
0.03625 1.98282e-15 -5.68434e-14 0.0025 1 1 2.5 0.005 214 5 1 1 
0.03875 1.48311e-15 1.13687e-13 0.0025 1 1 2.5 0.005 215 5 1 1 
0.04125 9.25492e-16 4.48416e-44 0.0025 1 1 2.5 0.005 216 5 1 1 
0.04375 6.30709e-16 2.24208e-44 0.0025 1 1 2.5 0.005 217 5 1 1 
0.04625 4.16591e-16 5.68434e-14 0.0025 1 1 2.5 0.005 218 5 1 1 
0.04875 2.34274e-16 0 0.0025 1 1 2.5 0.005 219 5 1 1 
0.05125 6.72356e-17 1.12104e-44 0.0025 1 1 2.5 0.005 220 5 1 1 
0.05375 3.64699e-47 1.12104e-44 0.0025 1 1 2.5 0.005 221 5 1 1 
0.05625 0 0 0.0025 1 1 2.5 0.005 222 5 1 1 
0.05875 0 0 0.0025 1 1 2.5 0.005 223 5 1 1 
0.06125 0 0 0.0025 1 1 2.5 0.005 224 5 1 1 
0.06375 0 0 0.0025 1 1 2.5 0.005 225 5 1 1 
0.06625 0 0 0.0025 1 1 2.5 0.005 226 5 1 1 
0.06875 0 0 0.0025 1 1 2.5 0.005 227 5 1 1 
0.07125 0 0 0.0025 1 1 2.5 0.005 228 5 1 1 
0.07375 0 0 0.0025 1 1 2.5 0.005 229 5 1 1 
0.07625 0 0 0.0025 1 1 2.5 0.005 230 5 1 1 
0.07875 0 0 0.0025 1 1 2.5 0.005 231 5 1 1 
0.08125 0 0 0.0025 1 1 2.5 0.005 232 5 1 1 
0.08375 0 0 0.0025 1 1 2.5 0.005 233 5 1 1 
0.08625 0 0 0.0025 1 1 2.5 0.005 234 5 1 1 
0.08875 0 0 0.0025 1 1 2.5 0.005 235 5 1 1 
0.09125 -6.297e-47 -1.12104e-44 0.0025 1 1 2.5 0.005 236 5 1 1 
0.09375 -3.35691e-17 -1.12104e-44 0.0025 1 1 2.5 0.005 237 5 1 1 
0.09625 -2.00225e-16 0 0.0025 1 1 2.5 0.005 238 5 1 1 
0.09875 -3.32868e-16 0 0.0025 1 1 2.5 0.005 239 5 1 1 
0.10125 -4.96786e-16 1.12104e-44 0.0025 1 1 2.5 0.005 240 5 1 1 
0.10375 -6.58468e-16 7.84727e-44 0.0025 1 1 2.5 0.005 241 5 1 1 
0.10625 1.23186e-15 1.13687e-13 0.0025 1 1 2.5 0.005 242 5 1 1 
0.10875 3.43234e-16 2.27374e-13 0.0025 1 1 2.5 0.005 243 5 1 1 
0.11125 1.23888e-15 -1.13687e-13 0.0025 1 1 2.5 0.005 244 5 1 1 
0.11375 -8.73351e-16 -2.27374e-13 0.0025 1 1 2.5 0.005 245 5 1 1 
0.11625 2.76064e-15 5.68434e-13 0.0025 1 1 2.5 0.005 246 5 1 1 
0.11875 8.17039e-18 4.54747e-13 0.0025 1 1 2.5 0.005 247 5 1 1 
0.12125 8.44291e-16 -5.68434e-13 0.0025 1 1 2.5 0.005 248 5 1 1 
0.12375 -3.11512e-15 -5.11591e-13 0.0025 1 1 2.5 0.005 249 4 1 1 
0.12625 3.11512e-15 5.11591e-13 0.0025 1 1 2.5 0.005 250 4 1 1 
0.12875 -8.44291e-16 5.68434e-13 0.0025 1 1 2.5 0.005 251 5 1 1 
0.13125 -8.17039e-18 -4.54747e-13 0.0025 1 1 2.5 0.005 252 5 1 1 
0.13375 -2.76064e-15 -5.68434e-13 0.0025 1 1 2.5 0.005 253 5 1 1 
0.13625 8.73351e-16 2.27374e-13 0.0025 1 1 2.5 0.005 254 5 1 1 
0.13875 -1.23888e-15 1.13687e-13 0.0025 1 1 2.5 0.005 255 5 1 1 
0.14125 -3.43234e-16 -2.27374e-13 0.0025 1 1 2.5 0.005 256 5 1 1 
0.14375 -1.23186e-15 -1.13687e-13 0.0025 1 1 2.5 0.005 257 5 1 1 
0.14625 6.58468e-16 -7.84727e-44 0.0025 1 1 2.5 0.005 258 5 1 1 
0.14875 4.96786e-16 -1.12104e-44 0.0025 1 1 2.5 0.005 259 5 1 1 
0.15125 3.32868e-16 0 0.0025 1 1 2.5 0.005 260 5 1 1 
0.15375 2.00225e-16 0 0.0025 1 1 2.5 0.005 261 5 1 1 
0.15625 3.35691e-17 1.12104e-44 0.0025 1 1 2.5 0.005 262 5 1 1 
0.15875 6.297e-47 1.12104e-44 0.0025 1 1 2.5 0.005 263 5 1 1 
0.16125 0 0 0.0025 1 1 2.5 0.005 264 5 1 1 
0.16375 0 0 0.0025 1 1 2.5 0.005 265 5 1 1 
0.16625 0 0 0.0025 1 1 2.5 0.005 266 5 1 1 
0.16875 0 0 0.0025 1 1 2.5 0.005 267 5 1 1 
0.17125 0 0 0.0025 1 1 2.5 0.005 268 5 1 1 
0.17375 0 0 0.0025 1 1 2.5 0.005 269 5 1 1 
0.17625 0 0 0.0025 1 1 2.5 0.005 270 5 1 1 
0.17875 0 0 0.0025 1 1 2.5 0.005 271 5 1 1 
0.18125 0 0 0.0025 1 1 2.5 0.005 272 5 1 1 
0.18375 0 0 0.0025 1 1 2.5 0.005 273 5 1 1 
0.18625 0 0 0.0025 1 1 2.5 0.005 274 5 1 1 
0.18875 0 0 0.0025 1 1 2.5 0.005 275 5 1 1 
0.19125 0 0 0.0025 1 1 2.5 0.005 276 5 1 1 
0.19375 0 0 0.0025 1 1 2.5 0.005 277 5 1 1 
0.19625 0 0 0.0025 1 1 2.5 0.005 278 5 1 1 
0.19875 0 0 0.0025 1 1 2.5 0.005 279 5 1 1 
0.20125 0 0 0.0025 1 1 2.5 0.005 280 5 1 1 
0.20375 0 0 0.0025 1 1 2.5 0.005 281 5 1 1 
0.20625 -2.32171e-47 -1.12104e-44 0.0025 1 1 2.5 0.005 282 5 1 1 
0.20875 -5.04497e-17 -5.68434e-14 0.0025 1 1 2.5 0.005 283 5 1 1 
0.21125 -2.34904e-16 -2.24208e-44 0.0025 1 1 2.5 0.005 284 5 1 1 
0.21375 -5.02609e-16 -4.48416e-44 0.0025 1 1 2.5 0.005 285 5 1 1 
0.21625 -9.36924e-16 -3.36312e-44 0.0025 1 1 2.5 0.005 286 5 1 1 
0.21875 -1.53617e-15 -1.13687e-13 0.0025 1 1 2.5 0.005 287 5 1 1 
0.22125 -2.33309e-15 1.12104e-44 0.0025 1 1 2.5 0.005 288 5 1 1 
0.22375 -3.12408e-15 8.96831e-44 0.0025 1 1 2.5 0.005 289 5 1 1 
0.22625 -3.56944e-15 4.54747e-13 0.0025 1 1 2.5 0.005 290 5 1 1 
0.22875 -4.55032e-15 2.84217e-13 0.0025 1 1 2.5 0.005 291 5 1 1 
0.23125 2.479e-15 2.27374e-13 0.0025 1 1 2.5 0.005 292 5 1 1 
0.23375 3.9513e-16 -1.7053e-13 0.0025 1 1 2.5 0.005 293 5 1 1 
0.23625 -2.10776e-15 -4.54747e-13 0.0025 1 1 2.5 0.005 294 5 1 1 
0.23875 -6.12357e-15 -5.68434e-13 0.0025 1 1 2.5 0.005 295 5 1 1 
0.24125 1.70044e-15 8.52651e-13 0.0025 1 1 2.5 0.005 296 5 1 1 
0.24375 -3.76495e-15 7.95808e-13 0.0025 1 1 2.5 0.005 297 5 1 1 
0.24625 3.72736e-15 -1.02318e-12 0.0025 1 1 2.5 0.005 298 5 1 1 
0.24875 -4.11264e-15 -7.95808e-13 0.0025 1 1 2.5 0.005 299 3 1 1 
0.25125 4.11264e-15 7.95808e-13 0.0025 1 1 2.5 0.005 300 3 1 1 
0.25375 -3.72736e-15 1.02318e-12 0.0025 1 1 2.5 0.005 301 5 1 1 
0.25625 3.76495e-15 -7.95808e-13 0.0025 1 1 2.5 0.005 302 5 1 1 
0.25875 -1.70044e-15 -8.52651e-13 0.0025 1 1 2.5 0.005 303 5 1 1 
0.26125 6.12357e-15 5.68434e-13 0.0025 1 1 2.5 0.005 304 5 1 1 
0.26375 2.10776e-15 4.54747e-13 0.0025 1 1 2.5 0.005 305 5 1 1 
0.26625 -3.9513e-16 1.7053e-13 0.0025 1 1 2.5 0.005 306 5 1 1 
0.26875 -2.479e-15 -2.27374e-13 0.0025 1 1 2.5 0.005 307 5 1 1 
0.27125 4.55032e-15 -2.84217e-13 0.0025 1 1 2.5 0.005 308 5 1 1 
0.27375 3.56944e-15 -4.54747e-13 0.0025 1 1 2.5 0.005 309 5 1 1 
0.27625 3.12408e-15 -8.96831e-44 0.0025 1 1 2.5 0.005 310 5 1 1 
0.27875 2.33309e-15 -1.12104e-44 0.0025 1 1 2.5 0.005 311 5 1 1 
0.28125 1.53617e-15 1.13687e-13 0.0025 1 1 2.5 0.005 312 5 1 1 
0.28375 9.36924e-16 3.36312e-44 0.0025 1 1 2.5 0.005 313 5 1 1 
0.28625 5.02609e-16 4.48416e-44 0.0025 1 1 2.5 0.005 314 5 1 1 
0.28875 2.34904e-16 2.24208e-44 0.0025 1 1 2.5 0.005 315 5 1 1 
0.29125 5.04497e-17 5.68434e-14 0.0025 1 1 2.5 0.005 316 5 1 1 
0.29375 2.32171e-47 1.12104e-44 0.0025 1 1 2.5 0.005 317 5 1 1 
0.29625 0 0 0.0025 1 1 2.5 0.005 318 5 1 1 
0.29875 0 0 0.0025 1 1 2.5 0.005 319 5 1 1 
0.30125 0 0 0.0025 1 1 2.5 0.005 320 5 1 1 
0.30375 0 0 0.0025 1 1 2.5 0.005 321 5 1 1 
0.30625 0 0 0.0025 1 1 2.5 0.005 322 5 1 1 
0.30875 0 0 0.0025 1 1 2.5 0.005 323 5 1 1 
0.31125 0 0 0.0025 1 1 2.5 0.005 324 5 1 1 
0.31375 0 0 0.0025 1 1 2.5 0.005 325 5 1 1 
0.31625 0 0 0.0025 1 1 2.5 0.005 326 5 1 1 
0.31875 0 0 0.0025 1 1 2.5 0.005 327 5 1 1 
0.32125 0 0 0.0025 1 1 2.5 0.005 328 5 1 1 
0.32375 0 0 0.0025 1 1 2.5 0.005 329 5 1 1 
0.32625 0 0 0.0025 1 1 2.5 0.005 330 5 1 1 
0.32875 0 0 0.0025 1 1 2.5 0.005 331 5 1 1 
0.33125 0 0 0.0025 1 1 2.5 0.005 332 5 1 1 
0.33375 0 0 0.0025 1 1 2.5 0.005 333 5 1 1 
0.33625 0 0 0.0025 1 1 2.5 0.005 334 5 1 1 
0.33875 0 0 0.0025 1 1 2.5 0.005 335 5 1 1 
0.34125 0 0 0.0025 1 1 2.5 0.005 336 5 1 1 
0.34375 0 0 0.0025 1 1 2.5 0.005 337 5 1 1 
0.34625 0 0 0.0025 1 1 2.5 0.005 338 5 1 1 
0.34875 0 0 0.0025 1 1 2.5 0.005 339 5 1 1 
0.35125 0 0 0.0025 1 1 2.5 0.005 340 5 1 1 
0.35375 0 0 0.0025 1 1 2.5 0.005 341 5 1 1 
0.35625 0 0 0.0025 1 1 2.5 0.005 342 5 1 1 
0.35875 0 0 0.0025 1 1 2.5 0.005 343 5 1 1 
0.36125 -4.64654e-47 -1.56945e-43 0.0025 1 1 2.5 0.005 344 5 1 1 
0.36375 -2.35608e-16 -7.95808e-13 0.0025 1 1 2.5 0.005 345 5 1 1 
0.36625 -2.55763e-15 -5.11591e-12 0.0025 1 1 2.5 0.005 346 5 1 1 
0.36875 -6.36407e-14 -7.9865e-11 0.0025 1 1 2.5 0.005 347 4 1 1 
