# Time [s]: 0.0481207
# Columns: pos [m], vel [m/s], acc [m/s^2], mass [kg], dens [kg/m^3], pres [Pa], ene [J/kg], sml [m], id, neighbor, alpha, gradh, ...additional?
-0.606154 -2.79692 -10.7992 0.0025 0.0582073 0.0208252 0.89447 0.0858999 0 5 1 1.0422 
-0.570768 -2.1915 -12.7781 0.0025 0.101045 0.0403301 0.99786 0.049483 1 5 1 0.978633 
-0.550347 -1.84371 -13.8495 0.0025 0.151241 0.0711261 1.17575 0.0330599 2 4 1 0.948872 
-0.536044 -1.60135 -14.5805 0.0025 0.202304 0.106887 1.32092 0.0247153 3 4 1 0.952664 
-0.525005 -1.4153 -15.1357 0.0025 0.251813 0.145175 1.44135 0.019856 4 4 1 0.961093 
-0.515914 -1.26248 -15.6555 0.0025 0.298876 0.184504 1.54337 0.0167294 5 4 1 0.968748 
-0.508132 -1.13135 -16.1438 0.0025 0.344199 0.22481 1.6329 0.0145265 6 4 1 0.974694 
-0.501301 -1.01612 -16.553 0.0025 0.388258 0.266082 1.71337 0.012878 7 4 1 0.979064 
-0.495198 -0.912572 -17.0511 0.0025 0.431408 0.308362 1.78701 0.01159 8 4 1 0.982486 
-0.489673 -0.818454 -17.4068 0.0025 0.473839 0.351622 1.85524 0.0105521 9 4 1 0.985147 
-0.484618 -0.731863 -17.7772 0.0025 0.5156 0.395741 1.9189 0.00969743 10 4 1 0.987298 
-0.479955 -0.652084 -18.0499 0.0025 0.556741 0.440625 1.97866 0.00898084 11 4 1 0.989076 
-0.475622 -0.577874 -18.2355 0.0025 0.597199 0.486079 2.03489 0.00837242 12 4 1 0.990519 
-0.471571 -0.508757 -18.4329 0.0025 0.636992 0.532004 2.08802 0.00784939 13 4 1 0.991726 
-0.467763 -0.444083 -18.5511 0.0025 0.676131 0.578309 2.13837 0.00739501 14 4 1 0.992733 
-0.464169 -0.383309 -18.6615 0.0025 0.71461 0.62489 2.18619 0.00699683 15 4 1 0.993587 
-0.460761 -0.32604 -18.7165 0.0025 0.752433 0.671668 2.23171 0.00664511 16 4 1 0.994331 
-0.457518 -0.272027 -18.6704 0.0025 0.789552 0.718494 2.27507 0.00633271 17 4 1 0.994928 
-0.454424 -0.22098 -18.8227 0.0025 0.826061 0.765414 2.31654 0.00605282 18 4 1 0.995378 
-0.451462 -0.171859 -19.332 0.0025 0.862239 0.812773 2.35661 0.00579886 19 4 1 0.996087 
-0.448622 -0.125164 -18.1626 0.0025 0.897097 0.859214 2.39429 0.00557354 20 4 1 0.99723 
-0.445886 -0.0865394 -13.9596 0.0025 0.927863 0.900603 2.42662 0.00538873 21 4 1 0.997258 
-0.443232 -0.0536675 -16.8327 0.0025 0.957639 0.941011 2.45725 0.00522117 22 4 1 0.995465 
-0.440663 -0.00472735 -28.8559 0.0025 0.996531 0.995408 2.49712 0.0050174 23 4 1 0.99681 
-0.438211 0.0494637 -19.0836 0.0025 1.0353 1.05064 2.53591 0.00482952 24 4 1 0.999996 
-0.435833 0.0647022 0.214795 0.0025 1.05127 1.0731 2.55117 0.00475615 25 3 1 1 
-0.433455 0.0582682 4.62445 0.0025 1.04704 1.06671 2.54678 0.00477536 26 4 1 1.00001 
-0.431057 0.0466931 6.19213 0.0025 1.03708 1.05242 2.53692 0.00482123 27 4 1 0.999755 
-0.428634 0.0337494 6.42513 0.0025 1.02636 1.03713 2.52627 0.00487157 28 4 1 0.999684 
-0.426186 0.0219594 5.48598 0.0025 1.01695 1.02378 2.51688 0.00491667 29 4 1 0.999737 
-0.423717 0.0128918 3.97944 0.0025 1.00988 1.0138 2.50982 0.00495109 30 4 1 0.999842 
-0.421235 0.00687365 2.50887 0.0025 1.00525 1.0073 2.50521 0.0049739 31 4 1 0.999929 
-0.418743 0.00335412 1.40542 0.0025 1.00256 1.00355 2.50253 0.00498725 32 4 1 0.999975 
-0.416247 0.0015066 0.711357 0.0025 1.00115 1.00159 2.50113 0.00499426 33 4 1 0.999993 
-0.413749 0.000624537 0.328652 0.0025 1.00048 1.00066 2.50047 0.00499762 34 4 1 0.999998 
-0.41125 0.000238802 0.139182 0.0025 1.00018 1.00025 2.50018 0.00499909 35 4 1 1 
-0.40875 8.39781e-05 0.0540292 0.0025 1.00006 1.00009 2.50006 0.00499968 36 4 1 1 
-0.40625 2.70226e-05 0.0191697 0.0025 1.00002 1.00003 2.50002 0.00499989 37 4 1 1 
-0.40375 7.89621e-06 0.00618294 0.0025 1.00001 1.00001 2.50001 0.00499997 38 4 1 1 
-0.40125 2.07168e-06 0.00179761 0.0025 1 1 2.5 0.00499999 39 4 1 1 
-0.39875 4.7946e-07 0.000464913 0.0025 1 1 2.5 0.005 40 4 1 1 
-0.39625 9.49783e-08 0.000104643 0.0025 1 1 2.5 0.005 41 4 1 1 
-0.39375 1.5183e-08 1.96842e-05 0.0025 1 1 2.5 0.005 42 4 1 1 
-0.39125 1.68789e-09 2.8238e-06 0.0025 1 1 2.5 0.005 43 4 1 1 
-0.38875 5.84374e-11 2.28129e-07 0.0025 1 1 2.5 0.005 44 4 1 1 
-0.38625 -8.32121e-12 -2.62388e-08 0.0025 1 1 2.5 0.005 45 5 1 1 
-0.38375 4.18582e-12 -2.92971e-10 0.0025 1 1 2.5 0.005 46 3 1 1 
-0.38125 2.00264e-12 1.35833e-09 0.0025 1 1 2.5 0.005 47 4 1 1 
-0.37875 4.94014e-13 5.16195e-10 0.0025 1 1 2.5 0.005 48 4 1 1 
-0.37625 8.51849e-14 1.08287e-10 0.0025 1 1 2.5 0.005 49 4 1 1 
-0.37375 6.36154e-15 2.3249e-11 0.0025 1 1 2.5 0.005 50 4 1 1 
-0.37125 -5.87457e-16 -1.98952e-12 0.0025 1 1 2.5 0.005 51 5 1 1 
-0.36875 -1.16466e-32 -3.9443e-29 0.0025 1 1 2.5 0.005 52 5 1 1 
-0.36625 0 0 0.0025 1 1 2.5 0.005 53 5 1 1 
-0.36375 0 0 0.0025 1 1 2.5 0.005 54 5 1 1 
-0.36125 0 0 0.0025 1 1 2.5 0.005 55 5 1 1 
-0.35875 0 0 0.0025 1 1 2.5 0.005 56 5 1 1 
-0.35625 0 0 0.0025 1 1 2.5 0.005 57 5 1 1 
-0.35375 0 0 0.0025 1 1 2.5 0.005 58 5 1 1 
-0.35125 0 0 0.0025 1 1 2.5 0.005 59 5 1 1 
-0.34875 0 0 0.0025 1 1 2.5 0.005 60 5 1 1 
-0.34625 0 0 0.0025 1 1 2.5 0.005 61 5 1 1 
-0.34375 0 0 0.0025 1 1 2.5 0.005 62 5 1 1 
-0.34125 0 0 0.0025 1 1 2.5 0.005 63 5 1 1 
-0.33875 0 0 0.0025 1 1 2.5 0.005 64 5 1 1 
-0.33625 0 0 0.0025 1 1 2.5 0.005 65 5 1 1 
-0.33375 0 0 0.0025 1 1 2.5 0.005 66 5 1 1 
-0.33125 0 0 0.0025 1 1 2.5 0.005 67 5 1 1 
-0.32875 0 0 0.0025 1 1 2.5 0.005 68 5 1 1 
-0.32625 0 0 0.0025 1 1 2.5 0.005 69 5 1 1 
-0.32375 0 0 0.0025 1 1 2.5 0.005 70 5 1 1 
-0.32125 0 0 0.0025 1 1 2.5 0.005 71 5 1 1 
-0.31875 0 0 0.0025 1 1 2.5 0.005 72 5 1 1 
-0.31625 0 0 0.0025 1 1 2.5 0.005 73 5 1 1 
-0.31375 0 0 0.0025 1 1 2.5 0.005 74 5 1 1 
-0.31125 0 0 0.0025 1 1 2.5 0.005 75 5 1 1 
-0.30875 0 0 0.0025 1 1 2.5 0.005 76 5 1 1 
-0.30625 0 0 0.0025 1 1 2.5 0.005 77 5 1 1 
-0.30375 0 0 0.0025 1 1 2.5 0.005 78 5 1 1 
-0.30125 0 0 0.0025 1 1 2.5 0.005 79 5 1 1 
-0.29875 0 0 0.0025 1 1 2.5 0.005 80 5 1 1 
-0.29625 0 0 0.0025 1 1 2.5 0.005 81 5 1 1 
-0.29375 0 0 0.0025 1 1 2.5 0.005 82 5 1 1 
-0.29125 0 0 0.0025 1 1 2.5 0.005 83 5 1 1 
-0.28875 0 0 0.0025 1 1 2.5 0.005 84 5 1 1 
-0.28625 0 0 0.0025 1 1 2.5 0.005 85 5 1 1 
-0.28375 0 0 0.0025 1 1 2.5 0.005 86 5 1 1 
-0.28125 0 0 0.0025 1 1 2.5 0.005 87 5 1 1 
-0.27875 0 0 0.0025 1 1 2.5 0.005 88 5 1 1 
-0.27625 0 0 0.0025 1 1 2.5 0.005 89 5 1 1 
-0.27375 0 0 0.0025 1 1 2.5 0.005 90 5 1 1 
-0.27125 0 0 0.0025 1 1 2.5 0.005 91 5 1 1 
-0.26875 0 0 0.0025 1 1 2.5 0.005 92 5 1 1 
-0.26625 0 0 0.0025 1 1 2.5 0.005 93 5 1 1 
-0.26375 0 0 0.0025 1 1 2.5 0.005 94 5 1 1 
-0.26125 0 0 0.0025 1 1 2.5 0.005 95 5 1 1 
-0.25875 0 0 0.0025 1 1 2.5 0.005 96 5 1 1 
-0.25625 0 0 0.0025 1 1 2.5 0.005 97 5 1 1 
-0.25375 0 0 0.0025 1 1 2.5 0.005 98 5 1 1 
-0.25125 0 0 0.0025 1 1 2.5 0.005 99 5 1 1 
-0.24875 0 0 0.0025 1 1 2.5 0.005 100 5 1 1 
-0.24625 0 0 0.0025 1 1 2.5 0.005 101 5 1 1 
-0.24375 0 0 0.0025 1 1 2.5 0.005 102 5 1 1 
-0.24125 0 0 0.0025 1 1 2.5 0.005 103 5 1 1 
-0.23875 0 0 0.0025 1 1 2.5 0.005 104 5 1 1 
-0.23625 0 0 0.0025 1 1 2.5 0.005 105 5 1 1 
-0.23375 0 0 0.0025 1 1 2.5 0.005 106 5 1 1 
-0.23125 0 0 0.0025 1 1 2.5 0.005 107 5 1 1 
-0.22875 0 0 0.0025 1 1 2.5 0.005 108 5 1 1 
-0.22625 0 0 0.0025 1 1 2.5 0.005 109 5 1 1 
-0.22375 0 0 0.0025 1 1 2.5 0.005 110 5 1 1 
-0.22125 0 0 0.0025 1 1 2.5 0.005 111 5 1 1 
-0.21875 0 0 0.0025 1 1 2.5 0.005 112 5 1 1 
-0.21625 0 0 0.0025 1 1 2.5 0.005 113 5 1 1 
-0.21375 0 0 0.0025 1 1 2.5 0.005 114 5 1 1 
-0.21125 0 0 0.0025 1 1 2.5 0.005 115 5 1 1 
-0.20875 0 0 0.0025 1 1 2.5 0.005 116 5 1 1 
-0.20625 0 0 0.0025 1 1 2.5 0.005 117 5 1 1 
-0.20375 0 0 0.0025 1 1 2.5 0.005 118 5 1 1 
-0.20125 0 0 0.0025 1 1 2.5 0.005 119 5 1 1 
-0.19875 0 0 0.0025 1 1 2.5 0.005 120 5 1 1 
-0.19625 0 0 0.0025 1 1 2.5 0.005 121 5 1 1 
-0.19375 0 0 0.0025 1 1 2.5 0.005 122 5 1 1 
-0.19125 0 0 0.0025 1 1 2.5 0.005 123 5 1 1 
-0.18875 0 0 0.0025 1 1 2.5 0.005 124 5 1 1 
-0.18625 0 0 0.0025 1 1 2.5 0.005 125 5 1 1 
-0.18375 0 0 0.0025 1 1 2.5 0.005 126 5 1 1 
-0.18125 0 0 0.0025 1 1 2.5 0.005 127 5 1 1 
-0.17875 0 0 0.0025 1 1 2.5 0.005 128 5 1 1 
-0.17625 0 0 0.0025 1 1 2.5 0.005 129 5 1 1 
-0.17375 0 0 0.0025 1 1 2.5 0.005 130 5 1 1 
-0.17125 0 0 0.0025 1 1 2.5 0.005 131 5 1 1 
-0.16875 0 0 0.0025 1 1 2.5 0.005 132 5 1 1 
-0.16625 0 0 0.0025 1 1 2.5 0.005 133 5 1 1 
-0.16375 0 0 0.0025 1 1 2.5 0.005 134 5 1 1 
-0.16125 0 0 0.0025 1 1 2.5 0.005 135 5 1 1 
-0.15875 0 0 0.0025 1 1 2.5 0.005 136 5 1 1 
-0.15625 0 0 0.0025 1 1 2.5 0.005 137 5 1 1 
-0.15375 0 0 0.0025 1 1 2.5 0.005 138 5 1 1 
-0.15125 0 0 0.0025 1 1 2.5 0.005 139 5 1 1 
-0.14875 0 0 0.0025 1 1 2.5 0.005 140 5 1 1 
-0.14625 0 0 0.0025 1 1 2.5 0.005 141 5 1 1 
-0.14375 0 0 0.0025 1 1 2.5 0.005 142 5 1 1 
-0.14125 0 0 0.0025 1 1 2.5 0.005 143 5 1 1 
-0.13875 0 0 0.0025 1 1 2.5 0.005 144 5 1 1 
-0.13625 0 0 0.0025 1 1 2.5 0.005 145 5 1 1 
-0.13375 0 0 0.0025 1 1 2.5 0.005 146 5 1 1 
-0.13125 0 0 0.0025 1 1 2.5 0.005 147 5 1 1 
-0.12875 0 0 0.0025 1 1 2.5 0.005 148 5 1 1 
-0.12625 0 0 0.0025 1 1 2.5 0.005 149 5 1 1 
-0.12375 0 0 0.0025 1 1 2.5 0.005 150 5 1 1 
-0.12125 0 0 0.0025 1 1 2.5 0.005 151 5 1 1 
-0.11875 0 0 0.0025 1 1 2.5 0.005 152 5 1 1 
-0.11625 0 0 0.0025 1 1 2.5 0.005 153 5 1 1 
-0.11375 0 0 0.0025 1 1 2.5 0.005 154 5 1 1 
-0.11125 0 0 0.0025 1 1 2.5 0.005 155 5 1 1 
-0.10875 0 0 0.0025 1 1 2.5 0.005 156 5 1 1 
-0.10625 0 0 0.0025 1 1 2.5 0.005 157 5 1 1 
-0.10375 0 0 0.0025 1 1 2.5 0.005 158 5 1 1 
-0.10125 0 0 0.0025 1 1 2.5 0.005 159 5 1 1 
-0.09875 0 0 0.0025 1 1 2.5 0.005 160 5 1 1 
-0.09625 0 0 0.0025 1 1 2.5 0.005 161 5 1 1 
-0.09375 0 0 0.0025 1 1 2.5 0.005 162 5 1 1 
-0.09125 0 0 0.0025 1 1 2.5 0.005 163 5 1 1 
-0.08875 0 0 0.0025 1 1 2.5 0.005 164 5 1 1 
-0.08625 0 0 0.0025 1 1 2.5 0.005 165 5 1 1 
-0.08375 0 0 0.0025 1 1 2.5 0.005 166 5 1 1 
-0.08125 0 0 0.0025 1 1 2.5 0.005 167 5 1 1 
-0.07875 0 0 0.0025 1 1 2.5 0.005 168 5 1 1 
-0.07625 0 0 0.0025 1 1 2.5 0.005 169 5 1 1 
-0.07375 0 0 0.0025 1 1 2.5 0.005 170 5 1 1 
-0.07125 0 0 0.0025 1 1 2.5 0.005 171 5 1 1 
-0.06875 0 0 0.0025 1 1 2.5 0.005 172 5 1 1 
-0.06625 0 0 0.0025 1 1 2.5 0.005 173 5 1 1 
-0.06375 0 0 0.0025 1 1 2.5 0.005 174 5 1 1 
-0.06125 0 0 0.0025 1 1 2.5 0.005 175 5 1 1 
-0.05875 0 0 0.0025 1 1 2.5 0.005 176 5 1 1 
-0.05625 0 0 0.0025 1 1 2.5 0.005 177 5 1 1 
-0.05375 -1.22064e-46 -1.12104e-44 0.0025 1 1 2.5 0.005 178 5 1 1 
-0.05125 -1.83807e-16 -5.68434e-14 0.0025 1 1 2.5 0.005 179 5 1 1 
-0.04875 -3.49682e-16 5.68434e-14 0.0025 1 1 2.5 0.005 180 5 1 1 
-0.04625 -5.46731e-16 -5.68434e-14 0.0025 1 1 2.5 0.005 181 5 1 1 
-0.04375 -7.91877e-16 -4.48416e-44 0.0025 1 1 2.5 0.005 182 5 1 1 
-0.04125 -1.28235e-15 -3.36312e-44 0.0025 1 1 2.5 0.005 183 5 1 1 
-0.03875 -1.78303e-15 -5.68434e-14 0.0025 1 1 2.5 0.005 184 5 1 1 
-0.03625 -2.20811e-15 -5.52203e-28 0.0025 1 1 2.5 0.005 185 5 1 1 
-0.03375 -3.92618e-15 -1.13687e-13 0.0025 1 1 2.5 0.005 186 4 1 1 
-0.03125 -3.21278e-16 6.31089e-28 0.0025 1 1 2.5 0.005 187 3 1 1 
-0.02875 -8.45847e-16 -1.13687e-13 0.0025 1 1 2.5 0.005 188 3 1 1 
-0.02625 -1.07144e-15 -6.31089e-28 0.0025 1 1 2.5 0.005 189 3 1 1 
-0.02375 2.08551e-15 2.27374e-13 0.0025 1 1 2.5 0.005 190 4 1 1 
-0.02125 6.57122e-16 3.97904e-13 0.0025 1 1 2.5 0.005 191 5 1 1 
-0.01875 1.04578e-15 -7.38964e-13 0.0025 1 1 2.5 0.005 192 4 1 1 
-0.01625 1.78465e-15 3.97904e-13 0.0025 1 1 2.5 0.005 193 3 1 1 
-0.01375 9.35535e-16 -1.13687e-13 0.0025 1 1 2.5 0.005 194 5 1 1 
-0.01125 -3.14663e-16 -5.68434e-14 0.0025 1 1 2.5 0.005 195 4 1 1 
-0.00875 1.30524e-15 2.46519e-28 0.0025 1 1 2.5 0.005 196 3 1 1 
-0.00625 4.26285e-16 -1.13687e-13 0.0025 1 1 2.5 0.005 197 5 1 1 
-0.00375 -9.87819e-20 2.27374e-13 0.0025 1 1 2.5 0.005 198 4 1 1 
-0.00125 -2.87793e-16 -3.97904e-13 0.0025 1 1 2.5 0.005 199 4 1 1 
0.00125 -2.18502e-16 2.84217e-13 0.0025 1 1 2.5 0.005 200 4 1 1 
0.00375 1.27936e-16 -1.13687e-13 0.0025 1 1 2.5 0.005 201 3 1 1 
0.00625 3.43122e-16 2.27374e-13 0.0025 1 1 2.5 0.005 202 4 1 1 
0.00875 -7.05169e-16 -8.87469e-29 0.0025 1 1 2.5 0.005 203 5 1 1 
0.01125 -8.36422e-16 -3.9443e-29 0.0025 1 1 2.5 0.005 204 3 1 1 
0.01375 -4.95217e-16 -1.13687e-13 0.0025 1 1 2.5 0.005 205 4 1 1 
0.01625 -2.70523e-15 -2.27374e-13 0.0025 1 1 2.5 0.005 206 4 1 1 
0.01875 3.46181e-16 3.41061e-13 0.0025 1 1 2.5 0.005 207 4 1 1 
0.02125 -9.85834e-16 5.68434e-14 0.0025 1 1 2.5 0.005 208 5 1 1 
0.02375 -2.56511e-15 -1.7053e-13 0.0025 1 1 2.5 0.005 209 4 1 1 
0.02625 1.17957e-15 2.76101e-28 0.0025 1 1 2.5 0.005 210 3 1 1 
0.02875 5.85849e-16 -2.76101e-28 0.0025 1 1 2.5 0.005 211 3 1 1 
0.03125 4.12589e-15 3.15544e-28 0.0025 1 1 2.5 0.005 212 4 1 1 
0.03375 2.34073e-15 1.13687e-13 0.0025 1 1 2.5 0.005 213 5 1 1 
0.03625 1.84836e-15 5.68434e-14 0.0025 1 1 2.5 0.005 214 5 1 1 
0.03875 1.31501e-15 1.12104e-44 0.0025 1 1 2.5 0.005 215 5 1 1 
0.04125 8.58195e-16 4.48416e-44 0.0025 1 1 2.5 0.005 216 5 1 1 
0.04375 5.63448e-16 2.24208e-44 0.0025 1 1 2.5 0.005 217 5 1 1 
0.04625 3.4936e-16 5.68434e-14 0.0025 1 1 2.5 0.005 218 5 1 1 
0.04875 1.83823e-16 -5.68434e-14 0.0025 1 1 2.5 0.005 219 5 1 1 
0.05125 1.67845e-17 5.68434e-14 0.0025 1 1 2.5 0.005 220 5 1 1 
0.05375 3.31015e-48 1.12104e-44 0.0025 1 1 2.5 0.005 221 5 1 1 
0.05625 0 0 0.0025 1 1 2.5 0.005 222 5 1 1 
0.05875 0 0 0.0025 1 1 2.5 0.005 223 5 1 1 
0.06125 0 0 0.0025 1 1 2.5 0.005 224 5 1 1 
0.06375 0 0 0.0025 1 1 2.5 0.005 225 5 1 1 
0.06625 0 0 0.0025 1 1 2.5 0.005 226 5 1 1 
0.06875 0 0 0.0025 1 1 2.5 0.005 227 5 1 1 
0.07125 0 0 0.0025 1 1 2.5 0.005 228 5 1 1 
0.07375 0 0 0.0025 1 1 2.5 0.005 229 5 1 1 
0.07625 0 0 0.0025 1 1 2.5 0.005 230 5 1 1 
0.07875 0 0 0.0025 1 1 2.5 0.005 231 5 1 1 
0.08125 0 0 0.0025 1 1 2.5 0.005 232 5 1 1 
0.08375 0 0 0.0025 1 1 2.5 0.005 233 5 1 1 
0.08625 0 0 0.0025 1 1 2.5 0.005 234 5 1 1 
0.08875 0 0 0.0025 1 1 2.5 0.005 235 5 1 1 
0.09125 -1.65468e-47 -1.12104e-44 0.0025 1 1 2.5 0.005 236 5 1 1 
0.09375 -3.35691e-17 -1.12104e-44 0.0025 1 1 2.5 0.005 237 5 1 1 
0.09625 -2.00225e-16 0 0.0025 1 1 2.5 0.005 238 5 1 1 
0.09875 -3.32868e-16 0 0.0025 1 1 2.5 0.005 239 5 1 1 
0.10125 -4.96786e-16 1.12104e-44 0.0025 1 1 2.5 0.005 240 5 1 1 
0.10375 -6.58468e-16 7.84727e-44 0.0025 1 1 2.5 0.005 241 5 1 1 
0.10625 4.58455e-16 2.27374e-13 0.0025 1 1 2.5 0.005 242 5 1 1 
0.10875 -2.95721e-16 1.13687e-13 0.0025 1 1 2.5 0.005 243 5 1 1 
0.11125 1.97867e-15 -2.27374e-13 0.0025 1 1 2.5 0.005 244 5 1 1 
0.11375 -1.33537e-16 -2.27374e-13 0.0025 1 1 2.5 0.005 245 5 1 1 
0.11625 6.4208e-16 5.68434e-13 0.0025 1 1 2.5 0.005 246 5 1 1 
0.11875 -2.41298e-15 6.82121e-13 0.0025 1 1 2.5 0.005 247 5 1 1 
0.12125 3.33271e-15 -6.82121e-13 0.0025 1 1 2.5 0.005 248 5 1 1 
0.12375 -8.45259e-16 -5.68434e-13 0.0025 1 1 2.5 0.005 249 4 1 1 
0.12625 8.45259e-16 5.68434e-13 0.0025 1 1 2.5 0.005 250 4 1 1 
0.12875 -3.33271e-15 6.82121e-13 0.0025 1 1 2.5 0.005 251 5 1 1 
0.13125 2.41298e-15 -6.82121e-13 0.0025 1 1 2.5 0.005 252 5 1 1 
0.13375 -6.4208e-16 -5.68434e-13 0.0025 1 1 2.5 0.005 253 5 1 1 
0.13625 1.33537e-16 2.27374e-13 0.0025 1 1 2.5 0.005 254 5 1 1 
0.13875 -1.97867e-15 2.27374e-13 0.0025 1 1 2.5 0.005 255 5 1 1 
0.14125 2.95721e-16 -1.13687e-13 0.0025 1 1 2.5 0.005 256 5 1 1 
0.14375 -4.58455e-16 -2.27374e-13 0.0025 1 1 2.5 0.005 257 5 1 1 
0.14625 6.58468e-16 -7.84727e-44 0.0025 1 1 2.5 0.005 258 5 1 1 
0.14875 4.96786e-16 -1.12104e-44 0.0025 1 1 2.5 0.005 259 5 1 1 
0.15125 3.32868e-16 0 0.0025 1 1 2.5 0.005 260 5 1 1 
0.15375 2.00225e-16 0 0.0025 1 1 2.5 0.005 261 5 1 1 
0.15625 3.35691e-17 1.12104e-44 0.0025 1 1 2.5 0.005 262 5 1 1 
0.15875 1.65468e-47 1.12104e-44 0.0025 1 1 2.5 0.005 263 5 1 1 
0.16125 0 0 0.0025 1 1 2.5 0.005 264 5 1 1 
0.16375 0 0 0.0025 1 1 2.5 0.005 265 5 1 1 
0.16625 0 0 0.0025 1 1 2.5 0.005 266 5 1 1 
0.16875 0 0 0.0025 1 1 2.5 0.005 267 5 1 1 
0.17125 0 0 0.0025 1 1 2.5 0.005 268 5 1 1 
0.17375 0 0 0.0025 1 1 2.5 0.005 269 5 1 1 
0.17625 0 0 0.0025 1 1 2.5 0.005 270 5 1 1 
0.17875 0 0 0.0025 1 1 2.5 0.005 271 5 1 1 
0.18125 0 0 0.0025 1 1 2.5 0.005 272 5 1 1 
0.18375 0 0 0.0025 1 1 2.5 0.005 273 5 1 1 
0.18625 0 0 0.0025 1 1 2.5 0.005 274 5 1 1 
0.18875 0 0 0.0025 1 1 2.5 0.005 275 5 1 1 
0.19125 0 0 0.0025 1 1 2.5 0.005 276 5 1 1 
0.19375 0 0 0.0025 1 1 2.5 0.005 277 5 1 1 
0.19625 0 0 0.0025 1 1 2.5 0.005 278 5 1 1 
0.19875 0 0 0.0025 1 1 2.5 0.005 279 5 1 1 
0.20125 0 0 0.0025 1 1 2.5 0.005 280 5 1 1 
0.20375 0 0 0.0025 1 1 2.5 0.005 281 5 1 1 
0.20625 0 0 0.0025 1 1 2.5 0.005 282 5 1 1 
0.20875 -5.61997e-47 -1.12104e-44 0.0025 1 1 2.5 0.005 283 5 1 1 
0.21125 -1.50827e-16 -5.68434e-14 0.0025 1 1 2.5 0.005 284 5 1 1 
0.21375 -3.34473e-16 -4.48416e-44 0.0025 1 1 2.5 0.005 285 5 1 1 
0.21625 -7.68799e-16 -1.13687e-13 0.0025 1 1 2.5 0.005 286 5 1 1 
0.21875 -1.30078e-15 -3.36312e-44 0.0025 1 1 2.5 0.005 287 5 1 1 
0.22125 -2.13135e-15 -1.13687e-13 0.0025 1 1 2.5 0.005 288 5 1 1 
0.22375 -3.10731e-15 -5.68434e-14 0.0025 1 1 2.5 0.005 289 5 1 1 
0.22625 -4.07413e-15 2.24208e-44 0.0025 1 1 2.5 0.005 290 5 1 1 
0.22875 -5.59297e-15 5.68434e-14 0.0025 1 1 2.5 0.005 291 5 1 1 
0.23125 -3.78858e-16 1.02318e-12 0.0025 1 1 2.5 0.005 292 5 1 1 
0.23375 -1.08377e-15 8.52651e-13 0.0025 1 1 2.5 0.005 293 5 1 1 
0.23625 1.18727e-15 -1.13687e-12 0.0025 1 1 2.5 0.005 294 5 1 1 
0.23875 -2.62651e-15 -9.09495e-13 0.0025 1 1 2.5 0.005 295 5 1 1 
0.24125 -1.17498e-15 4.54747e-13 0.0025 1 1 2.5 0.005 296 5 1 1 
0.24375 -6.9932e-15 5.68434e-13 0.0025 1 1 2.5 0.005 297 5 1 1 
0.24625 6.95595e-15 -3.41061e-13 0.0025 1 1 2.5 0.005 298 5 1 1 
0.24875 -1.11957e-15 -3.41061e-13 0.0025 1 1 2.5 0.005 299 3 1 1 
0.25125 1.11957e-15 3.41061e-13 0.0025 1 1 2.5 0.005 300 3 1 1 
0.25375 -6.95595e-15 3.41061e-13 0.0025 1 1 2.5 0.005 301 5 1 1 
0.25625 6.9932e-15 -5.68434e-13 0.0025 1 1 2.5 0.005 302 5 1 1 
0.25875 1.17498e-15 -4.54747e-13 0.0025 1 1 2.5 0.005 303 5 1 1 
0.26125 2.62651e-15 9.09495e-13 0.0025 1 1 2.5 0.005 304 5 1 1 
0.26375 -1.18727e-15 1.13687e-12 0.0025 1 1 2.5 0.005 305 5 1 1 
0.26625 1.08377e-15 -8.52651e-13 0.0025 1 1 2.5 0.005 306 5 1 1 
0.26875 3.78858e-16 -1.02318e-12 0.0025 1 1 2.5 0.005 307 5 1 1 
0.27125 5.59297e-15 -5.68434e-14 0.0025 1 1 2.5 0.005 308 5 1 1 
0.27375 4.07413e-15 -2.24208e-44 0.0025 1 1 2.5 0.005 309 5 1 1 
0.27625 3.10731e-15 5.68434e-14 0.0025 1 1 2.5 0.005 310 5 1 1 
0.27875 2.13135e-15 1.13687e-13 0.0025 1 1 2.5 0.005 311 5 1 1 
0.28125 1.30078e-15 3.36312e-44 0.0025 1 1 2.5 0.005 312 5 1 1 
0.28375 7.68799e-16 1.13687e-13 0.0025 1 1 2.5 0.005 313 5 1 1 
0.28625 3.34473e-16 4.48416e-44 0.0025 1 1 2.5 0.005 314 5 1 1 
0.28875 1.50827e-16 5.68434e-14 0.0025 1 1 2.5 0.005 315 5 1 1 
0.29125 5.61997e-47 1.12104e-44 0.0025 1 1 2.5 0.005 316 5 1 1 
0.29375 0 0 0.0025 1 1 2.5 0.005 317 5 1 1 
0.29625 0 0 0.0025 1 1 2.5 0.005 318 5 1 1 
0.29875 0 0 0.0025 1 1 2.5 0.005 319 5 1 1 
0.30125 0 0 0.0025 1 1 2.5 0.005 320 5 1 1 
0.30375 0 0 0.0025 1 1 2.5 0.005 321 5 1 1 
0.30625 0 0 0.0025 1 1 2.5 0.005 322 5 1 1 
0.30875 0 0 0.0025 1 1 2.5 0.005 323 5 1 1 
0.31125 0 0 0.0025 1 1 2.5 0.005 324 5 1 1 
0.31375 0 0 0.0025 1 1 2.5 0.005 325 5 1 1 
0.31625 0 0 0.0025 1 1 2.5 0.005 326 5 1 1 
0.31875 0 0 0.0025 1 1 2.5 0.005 327 5 1 1 
0.32125 0 0 0.0025 1 1 2.5 0.005 328 5 1 1 
0.32375 0 0 0.0025 1 1 2.5 0.005 329 5 1 1 
0.32625 0 0 0.0025 1 1 2.5 0.005 330 5 1 1 
0.32875 0 0 0.0025 1 1 2.5 0.005 331 5 1 1 
0.33125 0 0 0.0025 1 1 2.5 0.005 332 5 1 1 
0.33375 0 0 0.0025 1 1 2.5 0.005 333 5 1 1 
0.33625 0 0 0.0025 1 1 2.5 0.005 334 5 1 1 
0.33875 0 0 0.0025 1 1 2.5 0.005 335 5 1 1 
0.34125 0 0 0.0025 1 1 2.5 0.005 336 5 1 1 
0.34375 0 0 0.0025 1 1 2.5 0.005 337 5 1 1 
0.34625 0 0 0.0025 1 1 2.5 0.005 338 5 1 1 
0.34875 0 0 0.0025 1 1 2.5 0.005 339 5 1 1 
0.35125 0 0 0.0025 1 1 2.5 0.005 340 5 1 1 
0.35375 0 0 0.0025 1 1 2.5 0.005 341 5 1 1 
0.35625 0 0 0.0025 1 1 2.5 0.005 342 5 1 1 
0.35875 0 0 0.0025 1 1 2.5 0.005 343 5 1 1 
0.36125 0 0 0.0025 1 1 2.5 0.005 344 5 1 1 
0.36375 0 0 0.0025 1 1 2.5 0.005 345 5 1 1 
0.36625 0 0 0.0025 1 1 2.5 0.005 346 5 1 1 
0.36875 1.16466e-32 3.9443e-29 0.0025 1 1 2.5 0.005 347 5 1 1 
0.37125 4.86767e-16 1.76215e-12 0.0025 1 1 2.5 0.005 348 5 1 1 
0.37375 -8.27443e-15 -2.60911e-11 0.0025 1 1 2.5 0.005 349 4 1 1 
0.37625 -8.14256e-14 -8.72546e-11 0.0025 1 1 2.5 0.005 350 4 1 1 
