# Time [s]: 0.0623531
# Columns: pos [m], vel [m/s], acc [m/s^2], mass [kg], dens [kg/m^3], pres [Pa], ene [J/kg], sml [m], id, neighbor, alpha, gradh, ...additional?
-0.646947 -2.92886 -8.00074 0.0025 0.0470106 0.0154419 0.821208 0.106359 0 5 1 1.04146 
-0.603126 -2.34786 -9.49139 0.0025 0.0816465 0.0299246 0.916303 0.0612396 1 5 1 0.978448 
-0.577854 -2.01342 -10.3168 0.0025 0.122294 0.0528282 1.07996 0.040885 2 4 1 0.948834 
-0.56017 -1.78028 -10.8891 0.0025 0.163723 0.0794841 1.21372 0.0305393 3 4 1 0.952526 
-0.546535 -1.60114 -11.3204 0.0025 0.203945 0.10807 1.32477 0.0245164 4 4 1 0.961069 
-0.535313 -1.45419 -11.668 0.0025 0.242147 0.137416 1.41875 0.0206486 5 4 1 0.968855 
-0.525708 -1.32873 -11.9761 0.0025 0.27882 0.167394 1.50095 0.0179327 6 4 1 0.974789 
-0.517275 -1.21856 -12.2963 0.0025 0.314403 0.198032 1.5747 0.0159032 7 4 1 0.979303 
-0.509737 -1.11984 -12.5519 0.0025 0.349135 0.229306 1.64199 0.0143211 8 4 1 0.982718 
-0.502907 -1.03051 -12.814 0.0025 0.38317 0.261184 1.70414 0.013049 9 4 1 0.985346 
-0.496655 -0.948274 -13.0726 0.0025 0.416654 0.293673 1.76213 0.0120004 10 4 1 0.987416 
-0.490882 -0.872319 -13.3177 0.0025 0.44968 0.326758 1.81665 0.011119 11 4 1 0.989088 
-0.485517 -0.801348 -13.5362 0.0025 0.482297 0.3604 1.86818 0.0103671 12 4 1 0.990459 
-0.4805 -0.73494 -13.736 0.0025 0.514526 0.394551 1.9171 0.00971767 13 4 1 0.991601 
-0.475787 -0.672464 -13.9128 0.0025 0.546384 0.429158 1.96367 0.00915108 14 4 1 0.992572 
-0.47134 -0.613546 -14.0429 0.0025 0.577853 0.464147 2.00811 0.00865272 15 4 1 0.993395 
-0.467127 -0.557744 -14.1667 0.0025 0.60893 0.499455 2.05058 0.00821113 16 4 1 0.994087 
-0.463122 -0.504889 -14.2989 0.0025 0.639645 0.535069 2.09131 0.00781683 17 4 1 0.994698 
-0.459305 -0.454615 -14.3566 0.0025 0.669981 0.570921 2.1304 0.0074629 18 4 1 0.995221 
-0.455655 -0.40664 -14.4401 0.0025 0.699928 0.606955 2.16796 0.00714359 19 4 1 0.995666 
-0.452157 -0.360896 -14.5283 0.0025 0.729533 0.643191 2.20416 0.00685369 20 4 1 0.996064 
-0.448798 -0.3171 -14.5682 0.0025 0.758788 0.679579 2.23907 0.00658946 21 4 1 0.996416 
-0.445565 -0.275126 -14.6096 0.0025 0.787673 0.716065 2.27276 0.00634781 22 4 1 0.996737 
-0.442448 -0.234938 -14.5839 0.0025 0.81616 0.752576 2.30527 0.00612625 23 4 1 0.997026 
-0.439437 -0.196435 -14.5277 0.0025 0.844214 0.789027 2.33662 0.00592267 24 4 1 0.99725 
-0.436523 -0.159471 -14.6866 0.0025 0.871969 0.825566 2.36702 0.00573415 25 4 1 0.9974 
-0.433701 -0.12315 -15.2188 0.0025 0.899708 0.8626 2.39689 0.00555736 26 4 1 0.997812 
-0.430964 -0.0883098 -13.8748 0.0025 0.92628 0.898553 2.425 0.00539793 27 4 1 0.99855 
-0.428302 -0.0607426 -9.85747 0.0025 0.948928 0.929307 2.44837 0.0052691 28 4 1 0.998456 
-0.425695 -0.0373407 -12.9259 0.0025 0.971047 0.959489 2.47084 0.00514908 29 4 1 0.99704 
-0.423152 0.00163898 -23.5932 0.0025 1.00202 1.00302 2.50245 0.0049899 30 4 1 0.9978 
-0.420703 0.0458972 -15.6456 0.0025 1.03374 1.04825 2.53416 0.00483681 31 4 1 0.999975 
-0.418314 0.0586981 -0.0220659 0.0025 1.04704 1.06694 2.5469 0.00477536 32 3 1 1 
-0.415927 0.0540278 3.4187 0.0025 1.04408 1.06243 2.5438 0.00478891 33 4 1 1.00001 
-0.413525 0.0452375 4.71445 0.0025 1.03639 1.05143 2.53621 0.00482442 34 4 1 0.999855 
-0.411103 0.034941 5.18332 0.0025 1.02768 1.03901 2.52757 0.00486531 35 4 1 0.999794 
-0.40866 0.0248491 4.81953 0.0025 1.01944 1.02731 2.51937 0.00490466 36 4 1 0.999803 
-0.406198 0.0162769 3.90256 0.0025 1.01261 1.01767 2.51256 0.00493772 37 4 1 0.999857 
-0.403722 0.00985476 2.79968 0.0025 1.00759 1.0106 2.50755 0.00496235 38 4 1 0.999919 
-0.401236 0.0055445 1.81002 0.0025 1.00425 1.00592 2.50422 0.00497884 39 4 1 0.999963 
-0.398743 0.00291404 1.07012 0.0025 1.00223 1.0031 2.50221 0.00498889 40 4 1 0.999986 
-0.396247 0.00143613 0.584959 0.0025 1.0011 1.00152 2.50108 0.00499452 41 4 1 0.999996 
-0.393749 0.000664984 0.297679 0.0025 1.00051 1.0007 2.5005 0.00499746 42 4 1 0.999999 
-0.391249 0.000289414 0.141522 0.0025 1.00022 1.00031 2.50022 0.0049989 43 4 1 1 
-0.38875 0.000118295 0.0629292 0.0025 1.00009 1.00012 2.50009 0.00499955 44 4 1 1 
-0.38625 4.53326e-05 0.026162 0.0025 1.00003 1.00005 2.50003 0.00499983 45 4 1 1 
-0.38375 1.62458e-05 0.010154 0.0025 1.00001 1.00002 2.50001 0.00499994 46 4 1 1 
-0.38125 5.42553e-06 0.00367007 0.0025 1 1.00001 2.5 0.00499998 47 4 1 1 
-0.37875 1.68056e-06 0.00123093 0.0025 1 1 2.5 0.00499999 48 4 1 1 
-0.37625 4.79649e-07 0.00038116 0.0025 1 1 2.5 0.005 49 4 1 1 
-0.37375 1.24957e-07 0.000108172 0.0025 1 1 2.5 0.005 50 4 1 1 
-0.37125 2.92953e-08 2.7831e-05 0.0025 1 1 2.5 0.005 51 4 1 1 
-0.36875 6.03963e-09 6.38087e-06 0.0025 1 1 2.5 0.005 52 4 1 1 
-0.36625 1.05e-09 1.26548e-06 0.0025 1 1 2.5 0.005 53 4 1 1 
-0.36375 1.40367e-10 2.0453e-07 0.0025 1 1 2.5 0.005 54 4 1 1 
-0.36125 1.06628e-11 2.28077e-08 0.0025 1 1 2.5 0.005 55 4 1 1 
-0.35875 -4.43022e-13 2.96495e-10 0.0025 1 1 2.5 0.005 56 4 1 1 
-0.35625 8.87458e-14 -2.37208e-10 0.0025 1 1 2.5 0.005 57 5 1 1 
-0.35375 9.11852e-14 4.502e-11 0.0025 1 1 2.5 0.005 58 3 1 1 
-0.35125 3.05665e-14 3.64935e-11 0.0025 1 1 2.5 0.005 59 4 1 1 
-0.34875 1.18368e-15 3.06954e-12 0.0025 1 1 2.5 0.005 60 5 1 1 
-0.34625 1.01437e-16 1.13687e-13 0.0025 1 1 2.5 0.005 61 5 1 1 
-0.34375 3.33403e-47 2.24208e-44 0.0025 1 1 2.5 0.005 62 5 1 1 
-0.34125 0 0 0.0025 1 1 2.5 0.005 63 5 1 1 
-0.33875 0 0 0.0025 1 1 2.5 0.005 64 5 1 1 
-0.33625 0 0 0.0025 1 1 2.5 0.005 65 5 1 1 
-0.33375 0 0 0.0025 1 1 2.5 0.005 66 5 1 1 
-0.33125 0 0 0.0025 1 1 2.5 0.005 67 5 1 1 
-0.32875 0 0 0.0025 1 1 2.5 0.005 68 5 1 1 
-0.32625 0 0 0.0025 1 1 2.5 0.005 69 5 1 1 
-0.32375 0 0 0.0025 1 1 2.5 0.005 70 5 1 1 
-0.32125 0 0 0.0025 1 1 2.5 0.005 71 5 1 1 
-0.31875 0 0 0.0025 1 1 2.5 0.005 72 5 1 1 
-0.31625 0 0 0.0025 1 1 2.5 0.005 73 5 1 1 
-0.31375 0 0 0.0025 1 1 2.5 0.005 74 5 1 1 
-0.31125 0 0 0.0025 1 1 2.5 0.005 75 5 1 1 
-0.30875 0 0 0.0025 1 1 2.5 0.005 76 5 1 1 
-0.30625 0 0 0.0025 1 1 2.5 0.005 77 5 1 1 
-0.30375 0 0 0.0025 1 1 2.5 0.005 78 5 1 1 
-0.30125 0 0 0.0025 1 1 2.5 0.005 79 5 1 1 
-0.29875 0 0 0.0025 1 1 2.5 0.005 80 5 1 1 
-0.29625 0 0 0.0025 1 1 2.5 0.005 81 5 1 1 
-0.29375 0 0 0.0025 1 1 2.5 0.005 82 5 1 1 
-0.29125 0 0 0.0025 1 1 2.5 0.005 83 5 1 1 
-0.28875 0 0 0.0025 1 1 2.5 0.005 84 5 1 1 
-0.28625 0 0 0.0025 1 1 2.5 0.005 85 5 1 1 
-0.28375 0 0 0.0025 1 1 2.5 0.005 86 5 1 1 
-0.28125 0 0 0.0025 1 1 2.5 0.005 87 5 1 1 
-0.27875 0 0 0.0025 1 1 2.5 0.005 88 5 1 1 
-0.27625 0 0 0.0025 1 1 2.5 0.005 89 5 1 1 
-0.27375 0 0 0.0025 1 1 2.5 0.005 90 5 1 1 
-0.27125 0 0 0.0025 1 1 2.5 0.005 91 5 1 1 
-0.26875 0 0 0.0025 1 1 2.5 0.005 92 5 1 1 
-0.26625 0 0 0.0025 1 1 2.5 0.005 93 5 1 1 
-0.26375 0 0 0.0025 1 1 2.5 0.005 94 5 1 1 
-0.26125 0 0 0.0025 1 1 2.5 0.005 95 5 1 1 
-0.25875 0 0 0.0025 1 1 2.5 0.005 96 5 1 1 
-0.25625 0 0 0.0025 1 1 2.5 0.005 97 5 1 1 
-0.25375 0 0 0.0025 1 1 2.5 0.005 98 5 1 1 
-0.25125 0 0 0.0025 1 1 2.5 0.005 99 5 1 1 
-0.24875 0 0 0.0025 1 1 2.5 0.005 100 5 1 1 
-0.24625 0 0 0.0025 1 1 2.5 0.005 101 5 1 1 
-0.24375 0 0 0.0025 1 1 2.5 0.005 102 5 1 1 
-0.24125 0 0 0.0025 1 1 2.5 0.005 103 5 1 1 
-0.23875 0 0 0.0025 1 1 2.5 0.005 104 5 1 1 
-0.23625 0 0 0.0025 1 1 2.5 0.005 105 5 1 1 
-0.23375 0 0 0.0025 1 1 2.5 0.005 106 5 1 1 
-0.23125 0 0 0.0025 1 1 2.5 0.005 107 5 1 1 
-0.22875 0 0 0.0025 1 1 2.5 0.005 108 5 1 1 
-0.22625 0 0 0.0025 1 1 2.5 0.005 109 5 1 1 
-0.22375 0 0 0.0025 1 1 2.5 0.005 110 5 1 1 
-0.22125 0 0 0.0025 1 1 2.5 0.005 111 5 1 1 
-0.21875 0 0 0.0025 1 1 2.5 0.005 112 5 1 1 
-0.21625 0 0 0.0025 1 1 2.5 0.005 113 5 1 1 
-0.21375 0 0 0.0025 1 1 2.5 0.005 114 5 1 1 
-0.21125 0 0 0.0025 1 1 2.5 0.005 115 5 1 1 
-0.20875 0 0 0.0025 1 1 2.5 0.005 116 5 1 1 
-0.20625 0 0 0.0025 1 1 2.5 0.005 117 5 1 1 
-0.20375 0 0 0.0025 1 1 2.5 0.005 118 5 1 1 
-0.20125 0 0 0.0025 1 1 2.5 0.005 119 5 1 1 
-0.19875 0 0 0.0025 1 1 2.5 0.005 120 5 1 1 
-0.19625 0 0 0.0025 1 1 2.5 0.005 121 5 1 1 
-0.19375 0 0 0.0025 1 1 2.5 0.005 122 5 1 1 
-0.19125 0 0 0.0025 1 1 2.5 0.005 123 5 1 1 
-0.18875 0 0 0.0025 1 1 2.5 0.005 124 5 1 1 
-0.18625 0 0 0.0025 1 1 2.5 0.005 125 5 1 1 
-0.18375 0 0 0.0025 1 1 2.5 0.005 126 5 1 1 
-0.18125 0 0 0.0025 1 1 2.5 0.005 127 5 1 1 
-0.17875 0 0 0.0025 1 1 2.5 0.005 128 5 1 1 
-0.17625 0 0 0.0025 1 1 2.5 0.005 129 5 1 1 
-0.17375 0 0 0.0025 1 1 2.5 0.005 130 5 1 1 
-0.17125 0 0 0.0025 1 1 2.5 0.005 131 5 1 1 
-0.16875 0 0 0.0025 1 1 2.5 0.005 132 5 1 1 
-0.16625 0 0 0.0025 1 1 2.5 0.005 133 5 1 1 
-0.16375 0 0 0.0025 1 1 2.5 0.005 134 5 1 1 
-0.16125 0 0 0.0025 1 1 2.5 0.005 135 5 1 1 
-0.15875 0 0 0.0025 1 1 2.5 0.005 136 5 1 1 
-0.15625 0 0 0.0025 1 1 2.5 0.005 137 5 1 1 
-0.15375 0 0 0.0025 1 1 2.5 0.005 138 5 1 1 
-0.15125 0 0 0.0025 1 1 2.5 0.005 139 5 1 1 
-0.14875 0 0 0.0025 1 1 2.5 0.005 140 5 1 1 
-0.14625 0 0 0.0025 1 1 2.5 0.005 141 5 1 1 
-0.14375 0 0 0.0025 1 1 2.5 0.005 142 5 1 1 
-0.14125 0 0 0.0025 1 1 2.5 0.005 143 5 1 1 
-0.13875 0 0 0.0025 1 1 2.5 0.005 144 5 1 1 
-0.13625 0 0 0.0025 1 1 2.5 0.005 145 5 1 1 
-0.13375 0 0 0.0025 1 1 2.5 0.005 146 5 1 1 
-0.13125 0 0 0.0025 1 1 2.5 0.005 147 5 1 1 
-0.12875 0 0 0.0025 1 1 2.5 0.005 148 5 1 1 
-0.12625 0 0 0.0025 1 1 2.5 0.005 149 5 1 1 
-0.12375 0 0 0.0025 1 1 2.5 0.005 150 5 1 1 
-0.12125 0 0 0.0025 1 1 2.5 0.005 151 5 1 1 
-0.11875 0 0 0.0025 1 1 2.5 0.005 152 5 1 1 
-0.11625 0 0 0.0025 1 1 2.5 0.005 153 5 1 1 
-0.11375 0 0 0.0025 1 1 2.5 0.005 154 5 1 1 
-0.11125 0 0 0.0025 1 1 2.5 0.005 155 5 1 1 
-0.10875 0 0 0.0025 1 1 2.5 0.005 156 5 1 1 
-0.10625 0 0 0.0025 1 1 2.5 0.005 157 5 1 1 
-0.10375 0 0 0.0025 1 1 2.5 0.005 158 5 1 1 
-0.10125 0 0 0.0025 1 1 2.5 0.005 159 5 1 1 
-0.09875 0 0 0.0025 1 1 2.5 0.005 160 5 1 1 
-0.09625 0 0 0.0025 1 1 2.5 0.005 161 5 1 1 
-0.09375 0 0 0.0025 1 1 2.5 0.005 162 5 1 1 
-0.09125 0 0 0.0025 1 1 2.5 0.005 163 5 1 1 
-0.08875 0 0 0.0025 1 1 2.5 0.005 164 5 1 1 
-0.08625 0 0 0.0025 1 1 2.5 0.005 165 5 1 1 
-0.08375 0 0 0.0025 1 1 2.5 0.005 166 5 1 1 
-0.08125 0 0 0.0025 1 1 2.5 0.005 167 5 1 1 
-0.07875 0 0 0.0025 1 1 2.5 0.005 168 5 1 1 
-0.07625 0 0 0.0025 1 1 2.5 0.005 169 5 1 1 
-0.07375 0 0 0.0025 1 1 2.5 0.005 170 5 1 1 
-0.07125 0 0 0.0025 1 1 2.5 0.005 171 5 1 1 
-0.06875 0 0 0.0025 1 1 2.5 0.005 172 5 1 1 
-0.06625 0 0 0.0025 1 1 2.5 0.005 173 5 1 1 
-0.06375 0 0 0.0025 1 1 2.5 0.005 174 5 1 1 
-0.06125 0 0 0.0025 1 1 2.5 0.005 175 5 1 1 
-0.05875 -3.33507e-48 -1.12104e-44 0.0025 1 1 2.5 0.005 176 5 1 1 
-0.05625 -1.69108e-17 -5.68434e-14 0.0025 1 1 2.5 0.005 177 5 1 1 
-0.05375 -1.85409e-16 5.68434e-14 0.0025 1 1 2.5 0.005 178 5 1 1 
-0.05125 -3.52346e-16 -5.68434e-14 0.0025 1 1 2.5 0.005 179 5 1 1 
-0.04875 -5.35091e-16 0 0.0025 1 1 2.5 0.005 180 5 1 1 
-0.04625 -7.65858e-16 -2.24208e-44 0.0025 1 1 2.5 0.005 181 5 1 1 
-0.04375 -1.02772e-15 -4.48416e-44 0.0025 1 1 2.5 0.005 182 5 1 1 
-0.04125 -1.58577e-15 -1.13687e-13 0.0025 1 1 2.5 0.005 183 5 1 1 
-0.03875 -2.0864e-15 5.68434e-14 0.0025 1 1 2.5 0.005 184 5 1 1 
-0.03625 -2.46058e-15 5.68434e-14 0.0025 1 1 2.5 0.005 185 5 1 1 
-0.03375 -4.17864e-15 -5.68434e-14 0.0025 1 1 2.5 0.005 186 4 1 1 
-0.03125 -4.89249e-16 6.31089e-28 0.0025 1 1 2.5 0.005 187 3 1 1 
-0.02875 -7.10611e-16 -8.96831e-44 0.0025 1 1 2.5 0.005 188 3 1 1 
-0.02625 -1.13896e-15 -6.31089e-28 0.0025 1 1 2.5 0.005 189 3 1 1 
-0.02375 1.50951e-15 3.15544e-28 0.0025 1 1 2.5 0.005 190 4 1 1 
-0.02125 5.37857e-16 -1.13687e-13 0.0025 1 1 2.5 0.005 191 5 1 1 
-0.01875 2.06556e-15 5.68434e-14 0.0025 1 1 2.5 0.005 192 5 1 1 
-0.01625 6.51545e-16 1.13687e-13 0.0025 1 1 2.5 0.005 193 4 1 1 
-0.01375 -3.3018e-16 -5.68434e-14 0.0025 1 1 2.5 0.005 194 4 1 1 
-0.01125 1.25344e-15 6.31089e-28 0.0025 1 1 2.5 0.005 195 3 1 1 
-0.00875 6.80519e-16 -5.68434e-14 0.0025 1 1 2.5 0.005 196 3 1 1 
-0.00625 -1.28775e-17 -2.27374e-13 0.0025 1 1 2.5 0.005 197 4 1 1 
-0.00375 -3.36033e-17 -2.27374e-13 0.0025 1 1 2.5 0.005 198 3 1 1 
-0.00125 1.58299e-17 2.84217e-13 0.0025 1 1 2.5 0.005 199 3 1 1 
0.00125 -1.59992e-17 1.7053e-13 0.0025 1 1 2.5 0.005 200 4 1 1 
0.00375 -1.58536e-16 -1.7053e-13 0.0025 1 1 2.5 0.005 201 5 1 1 
0.00625 -5.99952e-16 1.13687e-13 0.0025 1 1 2.5 0.005 202 3 1 1 
0.00875 5.06114e-18 8.87469e-29 0.0025 1 1 2.5 0.005 203 3 1 1 
0.01125 -3.65783e-16 -8.87469e-29 0.0025 1 1 2.5 0.005 204 3 1 1 
0.01375 -1.38733e-15 1.7053e-13 0.0025 1 1 2.5 0.005 205 3 1 1 
0.01625 4.73004e-16 -1.3074e-12 0.0025 1 1 2.5 0.005 206 4 1 1 
0.01875 -2.52013e-15 1.47793e-12 0.0025 1 1 2.5 0.005 207 4 1 1 
0.02125 7.92797e-16 -3.41061e-13 0.0025 1 1 2.5 0.005 208 5 1 1 
0.02375 2.17685e-16 4.54747e-13 0.0025 1 1 2.5 0.005 209 5 1 1 
0.02625 -3.02911e-16 2.27374e-13 0.0025 1 1 2.5 0.005 210 4 1 1 
0.02875 7.87677e-16 0 0.0025 1 1 2.5 0.005 211 3 1 1 
0.03125 3.04368e-15 -3.41061e-13 0.0025 1 1 2.5 0.005 212 4 1 1 
0.03375 2.35662e-15 -1.7053e-13 0.0025 1 1 2.5 0.005 213 5 1 1 
0.03625 2.16818e-15 -3.9443e-29 0.0025 1 1 2.5 0.005 214 5 1 1 
0.03875 1.65172e-15 0 0.0025 1 1 2.5 0.005 215 5 1 1 
0.04125 1.12772e-15 4.48416e-44 0.0025 1 1 2.5 0.005 216 5 1 1 
0.04375 7.82469e-16 5.68434e-14 0.0025 1 1 2.5 0.005 217 5 1 1 
0.04625 5.51642e-16 -5.68434e-14 0.0025 1 1 2.5 0.005 218 5 1 1 
0.04875 3.52344e-16 5.68434e-14 0.0025 1 1 2.5 0.005 219 5 1 1 
0.05125 2.0217e-16 0 0.0025 1 1 2.5 0.005 220 5 1 1 
0.05375 3.38068e-17 1.12104e-44 0.0025 1 1 2.5 0.005 221 5 1 1 
0.05625 1.00023e-47 1.12104e-44 0.0025 1 1 2.5 0.005 222 5 1 1 
0.05875 0 0 0.0025 1 1 2.5 0.005 223 5 1 1 
0.06125 0 0 0.0025 1 1 2.5 0.005 224 5 1 1 
0.06375 0 0 0.0025 1 1 2.5 0.005 225 5 1 1 
0.06625 0 0 0.0025 1 1 2.5 0.005 226 5 1 1 
0.06875 0 0 0.0025 1 1 2.5 0.005 227 5 1 1 
0.07125 0 0 0.0025 1 1 2.5 0.005 228 5 1 1 
0.07375 0 0 0.0025 1 1 2.5 0.005 229 5 1 1 
0.07625 0 0 0.0025 1 1 2.5 0.005 230 5 1 1 
0.07875 0 0 0.0025 1 1 2.5 0.005 231 5 1 1 
0.08125 0 0 0.0025 1 1 2.5 0.005 232 5 1 1 
0.08375 0 0 0.0025 1 1 2.5 0.005 233 5 1 1 
0.08625 0 0 0.0025 1 1 2.5 0.005 234 5 1 1 
0.08875 0 0 0.0025 1 1 2.5 0.005 235 5 1 1 
0.09125 -1.76097e-46 -1.12104e-44 0.0025 1 1 2.5 0.005 236 5 1 1 
0.09375 -3.35691e-17 -1.12104e-44 0.0025 1 1 2.5 0.005 237 5 1 1 
0.09625 -2.00225e-16 1.12104e-44 0.0025 1 1 2.5 0.005 238 5 1 1 
0.09875 -3.32868e-16 1.12104e-44 0.0025 1 1 2.5 0.005 239 5 1 1 
0.10125 -2.43607e-16 5.68434e-14 0.0025 1 1 2.5 0.005 240 5 1 1 
0.10375 -4.22125e-16 6.72623e-44 0.0025 1 1 2.5 0.005 241 5 1 1 
0.10625 2.39561e-15 1.7053e-13 0.0025 1 1 2.5 0.005 242 5 1 1 
0.10875 1.38872e-15 4.48416e-44 0.0025 1 1 2.5 0.005 243 5 1 1 
0.11125 1.07192e-15 1.13687e-13 0.0025 1 1 2.5 0.005 244 5 1 1 
0.11375 -1.71585e-15 3.47522e-43 0.0025 1 1 2.5 0.005 245 5 1 1 
0.11625 3.02511e-15 -3.41061e-13 0.0025 1 1 2.5 0.005 246 5 1 1 
0.11875 2.0677e-16 -2.27374e-13 0.0025 1 1 2.5 0.005 247 5 1 1 
0.12125 2.41879e-15 5.11591e-13 0.0025 1 1 2.5 0.005 248 5 1 1 
0.12375 -9.99691e-16 5.68434e-13 0.0025 1 1 2.5 0.005 249 4 1 1 
0.12625 9.99691e-16 -5.68434e-13 0.0025 1 1 2.5 0.005 250 4 1 1 
0.12875 -2.41879e-15 -5.11591e-13 0.0025 1 1 2.5 0.005 251 5 1 1 
0.13125 -2.0677e-16 2.27374e-13 0.0025 1 1 2.5 0.005 252 5 1 1 
0.13375 -3.02511e-15 3.41061e-13 0.0025 1 1 2.5 0.005 253 5 1 1 
0.13625 1.71585e-15 -3.47522e-43 0.0025 1 1 2.5 0.005 254 5 1 1 
0.13875 -1.07192e-15 -1.13687e-13 0.0025 1 1 2.5 0.005 255 5 1 1 
0.14125 -1.38872e-15 -4.48416e-44 0.0025 1 1 2.5 0.005 256 5 1 1 
0.14375 -2.39561e-15 -1.7053e-13 0.0025 1 1 2.5 0.005 257 5 1 1 
0.14625 4.22125e-16 -6.72623e-44 0.0025 1 1 2.5 0.005 258 5 1 1 
0.14875 2.43607e-16 -5.68434e-14 0.0025 1 1 2.5 0.005 259 5 1 1 
0.15125 3.32868e-16 -1.12104e-44 0.0025 1 1 2.5 0.005 260 5 1 1 
0.15375 2.00225e-16 -1.12104e-44 0.0025 1 1 2.5 0.005 261 5 1 1 
0.15625 3.35691e-17 1.12104e-44 0.0025 1 1 2.5 0.005 262 5 1 1 
0.15875 1.76097e-46 1.12104e-44 0.0025 1 1 2.5 0.005 263 5 1 1 
0.16125 0 0 0.0025 1 1 2.5 0.005 264 5 1 1 
0.16375 0 0 0.0025 1 1 2.5 0.005 265 5 1 1 
0.16625 0 0 0.0025 1 1 2.5 0.005 266 5 1 1 
0.16875 0 0 0.0025 1 1 2.5 0.005 267 5 1 1 
0.17125 0 0 0.0025 1 1 2.5 0.005 268 5 1 1 
0.17375 0 0 0.0025 1 1 2.5 0.005 269 5 1 1 
0.17625 0 0 0.0025 1 1 2.5 0.005 270 5 1 1 
0.17875 0 0 0.0025 1 1 2.5 0.005 271 5 1 1 
0.18125 0 0 0.0025 1 1 2.5 0.005 272 5 1 1 
0.18375 0 0 0.0025 1 1 2.5 0.005 273 5 1 1 
0.18625 0 0 0.0025 1 1 2.5 0.005 274 5 1 1 
0.18875 0 0 0.0025 1 1 2.5 0.005 275 5 1 1 
0.19125 0 0 0.0025 1 1 2.5 0.005 276 5 1 1 
0.19375 0 0 0.0025 1 1 2.5 0.005 277 5 1 1 
0.19625 0 0 0.0025 1 1 2.5 0.005 278 5 1 1 
0.19875 0 0 0.0025 1 1 2.5 0.005 279 5 1 1 
0.20125 0 0 0.0025 1 1 2.5 0.005 280 5 1 1 
0.20375 -3.66578e-47 -1.12104e-44 0.0025 1 1 2.5 0.005 281 5 1 1 
0.20625 -6.7595e-17 -1.12104e-44 0.0025 1 1 2.5 0.005 282 5 1 1 
0.20875 -2.52817e-16 -5.68434e-14 0.0025 1 1 2.5 0.005 283 5 1 1 
0.21125 -4.71033e-16 -2.24208e-44 0.0025 1 1 2.5 0.005 284 5 1 1 
0.21375 -7.05039e-16 -2.24208e-44 0.0025 1 1 2.5 0.005 285 5 1 1 
0.21625 -1.13905e-15 0 0.0025 1 1 2.5 0.005 286 5 1 1 
0.21875 -1.63709e-15 1.12104e-44 0.0025 1 1 2.5 0.005 287 5 1 1 
0.22125 -1.9111e-15 5.68434e-14 0.0025 1 1 2.5 0.005 288 5 1 1 
0.22375 -2.21323e-15 1.13687e-13 0.0025 1 1 2.5 0.005 289 5 1 1 
0.22625 1.89697e-15 3.41061e-13 0.0025 1 1 2.5 0.005 290 5 1 1 
0.22875 1.2165e-16 1.13687e-13 0.0025 1 1 2.5 0.005 291 5 1 1 
0.23125 -2.0771e-15 -2.27374e-13 0.0025 1 1 2.5 0.005 292 5 1 1 
0.23375 -4.46431e-15 -2.84217e-13 0.0025 1 1 2.5 0.005 293 5 1 1 
0.23625 4.03528e-17 7.38964e-13 0.0025 1 1 2.5 0.005 294 5 1 1 
0.23875 -3.2829e-15 6.82121e-13 0.0025 1 1 2.5 0.005 295 5 1 1 
0.24125 1.97821e-15 -9.09495e-13 0.0025 1 1 2.5 0.005 296 5 1 1 
0.24375 -3.60518e-15 -7.95808e-13 0.0025 1 1 2.5 0.005 297 5 1 1 
0.24625 9.69293e-16 6.82121e-13 0.0025 1 1 2.5 0.005 298 5 1 1 
0.24875 -6.28027e-15 8.52651e-13 0.0025 1 1 2.5 0.005 299 3 1 1 
0.25125 6.28027e-15 -8.52651e-13 0.0025 1 1 2.5 0.005 300 3 1 1 
0.25375 -9.69293e-16 -6.82121e-13 0.0025 1 1 2.5 0.005 301 5 1 1 
0.25625 3.60518e-15 7.95808e-13 0.0025 1 1 2.5 0.005 302 5 1 1 
0.25875 -1.97821e-15 9.09495e-13 0.0025 1 1 2.5 0.005 303 5 1 1 
0.26125 3.2829e-15 -6.82121e-13 0.0025 1 1 2.5 0.005 304 5 1 1 
0.26375 -4.03528e-17 -7.38964e-13 0.0025 1 1 2.5 0.005 305 5 1 1 
0.26625 4.46431e-15 2.84217e-13 0.0025 1 1 2.5 0.005 306 5 1 1 
0.26875 2.0771e-15 2.27374e-13 0.0025 1 1 2.5 0.005 307 5 1 1 
0.27125 -1.2165e-16 -1.13687e-13 0.0025 1 1 2.5 0.005 308 5 1 1 
0.27375 -1.89697e-15 -3.41061e-13 0.0025 1 1 2.5 0.005 309 5 1 1 
0.27625 2.21323e-15 -1.13687e-13 0.0025 1 1 2.5 0.005 310 5 1 1 
0.27875 1.9111e-15 -5.68434e-14 0.0025 1 1 2.5 0.005 311 5 1 1 
0.28125 1.63709e-15 -1.12104e-44 0.0025 1 1 2.5 0.005 312 5 1 1 
0.28375 1.13905e-15 0 0.0025 1 1 2.5 0.005 313 5 1 1 
0.28625 7.05039e-16 2.24208e-44 0.0025 1 1 2.5 0.005 314 5 1 1 
0.28875 4.71033e-16 2.24208e-44 0.0025 1 1 2.5 0.005 315 5 1 1 
0.29125 2.52817e-16 5.68434e-14 0.0025 1 1 2.5 0.005 316 5 1 1 
0.29375 6.7595e-17 1.12104e-44 0.0025 1 1 2.5 0.005 317 5 1 1 
0.29625 3.66578e-47 1.12104e-44 0.0025 1 1 2.5 0.005 318 5 1 1 
0.29875 0 0 0.0025 1 1 2.5 0.005 319 5 1 1 
0.30125 0 0 0.0025 1 1 2.5 0.005 320 5 1 1 
0.30375 0 0 0.0025 1 1 2.5 0.005 321 5 1 1 
0.30625 0 0 0.0025 1 1 2.5 0.005 322 5 1 1 
0.30875 0 0 0.0025 1 1 2.5 0.005 323 5 1 1 
0.31125 0 0 0.0025 1 1 2.5 0.005 324 5 1 1 
0.31375 0 0 0.0025 1 1 2.5 0.005 325 5 1 1 
0.31625 0 0 0.0025 1 1 2.5 0.005 326 5 1 1 
0.31875 0 0 0.0025 1 1 2.5 0.005 327 5 1 1 
0.32125 0 0 0.0025 1 1 2.5 0.005 328 5 1 1 
0.32375 0 0 0.0025 1 1 2.5 0.005 329 5 1 1 
0.32625 0 0 0.0025 1 1 2.5 0.005 330 5 1 1 
0.32875 0 0 0.0025 1 1 2.5 0.005 331 5 1 1 
0.33125 0 0 0.0025 1 1 2.5 0.005 332 5 1 1 
0.33375 0 0 0.0025 1 1 2.5 0.005 333 5 1 1 
0.33625 0 0 0.0025 1 1 2.5 0.005 334 5 1 1 
0.33875 0 0 0.0025 1 1 2.5 0.005 335 5 1 1 
0.34125 0 0 0.0025 1 1 2.5 0.005 336 5 1 1 
0.34375 -3.33403e-47 -2.24208e-44 0.0025 1 1 2.5 0.005 337 5 1 1 
0.34625 -1.01437e-16 -1.13687e-13 0.0025 1 1 2.5 0.005 338 5 1 1 
0.34875 -9.97724e-16 -3.12639e-12 0.0025 1 1 2.5 0.005 339 5 1 1 
0.35125 -2.96197e-14 -3.36513e-11 0.0025 1 1 2.5 0.005 340 4 1 1 
