# Time [s]: 0.0605686
# Columns: pos [m], vel [m/s], acc [m/s^2], mass [kg], dens [kg/m^3], pres [Pa], ene [J/kg], sml [m], id, neighbor, alpha, gradh, ...additional?
-0.641733 -2.91434 -8.27458 0.0025 0.048152 0.0159693 0.829126 0.103838 0 5 1 1.04152 
-0.598952 -2.33064 -9.81441 0.0025 0.0836257 0.030945 0.925124 0.0597902 1 5 1 0.978473 
-0.574278 -1.9947 -10.6645 0.0025 0.12525 0.0546246 1.09033 0.03992 2 4 1 0.948836 
-0.557011 -1.76052 -11.254 0.0025 0.167668 0.0821776 1.22533 0.0298209 3 4 1 0.952542 
-0.543696 -1.5806 -11.6972 0.0025 0.208842 0.11172 1.33741 0.0239415 4 4 1 0.961085 
-0.532737 -1.43303 -12.0551 0.0025 0.247945 0.142044 1.43224 0.0201658 5 4 1 0.968854 
-0.523356 -1.30701 -12.3814 0.0025 0.285491 0.173028 1.51521 0.0175137 6 4 1 0.974774 
-0.51512 -1.19625 -12.718 0.0025 0.321936 0.204706 1.58968 0.015531 7 4 1 0.979305 
-0.507759 -1.09707 -12.9691 0.0025 0.357507 0.23704 1.65763 0.0139858 8 4 1 0.982688 
-0.501089 -1.00724 -13.2719 0.0025 0.39238 0.270015 1.7204 0.0127427 9 4 1 0.985333 
-0.494983 -0.924555 -13.5162 0.0025 0.426701 0.303634 1.779 0.0117178 10 4 1 0.98739 
-0.489347 -0.84813 -13.7974 0.0025 0.460555 0.337873 1.83409 0.0108565 11 4 1 0.989075 
-0.484108 -0.776782 -14.0017 0.0025 0.493994 0.372696 1.88618 0.0101216 12 4 1 0.990453 
-0.479211 -0.710008 -14.2114 0.0025 0.527017 0.408025 1.93558 0.00948735 13 4 1 0.991604 
-0.47461 -0.647223 -14.3799 0.0025 0.559647 0.443814 1.9826 0.0089342 14 4 1 0.992576 
-0.470268 -0.588062 -14.5227 0.0025 0.591871 0.479986 2.02745 0.00844779 15 4 1 0.993408 
-0.466154 -0.53206 -14.6247 0.0025 0.623674 0.516467 2.0703 0.008017 16 4 1 0.994105 
-0.462244 -0.478966 -14.756 0.0025 0.655082 0.553233 2.11136 0.00763263 17 4 1 0.994708 
-0.458517 -0.428573 -14.8358 0.0025 0.686108 0.590253 2.15077 0.00728748 18 4 1 0.995239 
-0.454953 -0.38048 -14.8853 0.0025 0.716722 0.627442 2.18862 0.0069762 19 4 1 0.995686 
-0.451537 -0.334567 -14.9804 0.0025 0.74696 0.664802 2.22507 0.0066938 20 4 1 0.996083 
-0.448256 -0.290703 -15.0202 0.0025 0.776834 0.702314 2.26022 0.00643638 21 4 1 0.996446 
-0.445098 -0.248701 -15.0035 0.0025 0.806284 0.739863 2.29409 0.00620129 22 4 1 0.996771 
-0.442052 -0.208582 -14.9569 0.0025 0.83528 0.777369 2.32672 0.00598602 23 4 1 0.997035 
-0.439109 -0.170103 -15.0415 0.0025 0.86391 0.814911 2.35827 0.00578764 24 4 1 0.99721 
-0.436262 -0.132478 -15.5718 0.0025 0.892471 0.852897 2.38916 0.00560243 25 4 1 0.997577 
-0.433505 -0.0960915 -14.7183 0.0025 0.920176 0.890273 2.41861 0.00543374 26 4 1 0.998359 
-0.430827 -0.0663462 -10.6628 0.0025 0.944178 0.922845 2.44351 0.00529561 27 4 1 0.998452 
-0.428209 -0.0424196 -12.1741 0.0025 0.966553 0.953291 2.46627 0.00517302 28 4 1 0.997076 
-0.425654 -0.00495465 -23.2631 0.0025 0.997086 0.99602 2.49745 0.00501461 29 4 1 0.997358 
-0.423192 0.0420763 -18.4103 0.0025 1.03071 1.04396 2.53121 0.00485101 30 4 1 0.999863 
-0.420801 0.0592955 -1.0421 0.0025 1.04704 1.06701 2.54696 0.00477538 31 3 1 1.00001 
-0.418417 0.0554357 3.31182 0.0025 1.04522 1.06407 2.54493 0.00478368 32 4 1 1.00003 
-0.416018 0.046686 4.73979 0.0025 1.03758 1.05313 2.53739 0.00481889 33 4 1 0.99986 
-0.413598 0.0361901 5.31509 0.0025 1.02868 1.04043 2.52857 0.0048606 34 4 1 0.999787 
-0.411157 0.0257752 4.99286 0.0025 1.02016 1.02833 2.52009 0.00490119 35 4 1 0.999791 
-0.408697 0.0168684 4.06363 0.0025 1.01307 1.01831 2.51301 0.00493551 36 4 1 0.999846 
-0.406221 0.0101787 2.9182 0.0025 1.00783 1.01094 2.50779 0.00496114 37 4 1 0.999912 
-0.403736 0.00569456 1.88164 0.0025 1.00436 1.00608 2.50433 0.00497828 38 4 1 0.99996 
-0.401243 0.00297 1.10633 0.0025 1.00227 1.00315 2.50225 0.00498868 39 4 1 0.999985 
-0.398747 0.00144983 0.600026 0.0025 1.00111 1.00153 2.50109 0.00499447 40 4 1 0.999995 
-0.396249 0.000663782 0.302358 0.0025 1.00051 1.0007 2.5005 0.00499747 41 4 1 0.999999 
-0.393749 0.000285124 0.142071 0.0025 1.00022 1.0003 2.50021 0.00499891 42 4 1 1 
-0.39125 0.000114797 0.0623164 0.0025 1.00009 1.00012 2.50009 0.00499956 43 4 1 1 
-0.38875 4.32381e-05 0.0255019 0.0025 1.00003 1.00005 2.50003 0.00499983 44 4 1 1 
-0.38625 1.51915e-05 0.00971994 0.0025 1.00001 1.00002 2.50001 0.00499994 45 4 1 1 
-0.38375 4.95918e-06 0.0034407 0.0025 1 1.00001 2.5 0.00499998 46 4 1 1 
-0.38125 1.49604e-06 0.00112652 0.0025 1 1 2.5 0.00499999 47 4 1 1 
-0.37875 4.1389e-07 0.000339136 0.0025 1 1 2.5 0.005 48 4 1 1 
-0.37625 1.03847e-07 9.30716e-05 0.0025 1 1 2.5 0.005 49 4 1 1 
-0.37375 2.32249e-08 2.29808e-05 0.0025 1 1 2.5 0.005 50 4 1 1 
-0.37125 4.4959e-09 4.99694e-06 0.0025 1 1 2.5 0.005 51 4 1 1 
-0.36875 7.11529e-10 9.19961e-07 0.0025 1 1 2.5 0.005 52 4 1 1 
-0.36625 7.97794e-11 1.31366e-07 0.0025 1 1 2.5 0.005 53 4 1 1 
-0.36375 3.02709e-12 1.09108e-08 0.0025 1 1 2.5 0.005 54 4 1 1 
-0.36125 -3.83701e-13 -1.13857e-09 0.0025 1 1 2.5 0.005 55 5 1 1 
-0.35875 1.89331e-13 -1.8531e-11 0.0025 1 1 2.5 0.005 56 3 1 1 
-0.35625 1.08903e-13 5.70708e-11 0.0025 1 1 2.5 0.005 57 4 1 1 
-0.35375 1.68842e-14 3.32534e-11 0.0025 1 1 2.5 0.005 58 4 1 1 
-0.35125 1.2503e-15 1.13687e-13 0.0025 1 1 2.5 0.005 59 5 1 1 
-0.34875 1.85946e-16 5.11591e-13 0.0025 1 1 2.5 0.005 60 5 1 1 
-0.34625 4.33357e-47 1.00893e-43 0.0025 1 1 2.5 0.005 61 5 1 1 
-0.34375 0 0 0.0025 1 1 2.5 0.005 62 5 1 1 
-0.34125 0 0 0.0025 1 1 2.5 0.005 63 5 1 1 
-0.33875 0 0 0.0025 1 1 2.5 0.005 64 5 1 1 
-0.33625 0 0 0.0025 1 1 2.5 0.005 65 5 1 1 
-0.33375 0 0 0.0025 1 1 2.5 0.005 66 5 1 1 
-0.33125 0 0 0.0025 1 1 2.5 0.005 67 5 1 1 
-0.32875 0 0 0.0025 1 1 2.5 0.005 68 5 1 1 
-0.32625 0 0 0.0025 1 1 2.5 0.005 69 5 1 1 
-0.32375 0 0 0.0025 1 1 2.5 0.005 70 5 1 1 
-0.32125 0 0 0.0025 1 1 2.5 0.005 71 5 1 1 
-0.31875 0 0 0.0025 1 1 2.5 0.005 72 5 1 1 
-0.31625 0 0 0.0025 1 1 2.5 0.005 73 5 1 1 
-0.31375 0 0 0.0025 1 1 2.5 0.005 74 5 1 1 
-0.31125 0 0 0.0025 1 1 2.5 0.005 75 5 1 1 
-0.30875 0 0 0.0025 1 1 2.5 0.005 76 5 1 1 
-0.30625 0 0 0.0025 1 1 2.5 0.005 77 5 1 1 
-0.30375 0 0 0.0025 1 1 2.5 0.005 78 5 1 1 
-0.30125 0 0 0.0025 1 1 2.5 0.005 79 5 1 1 
-0.29875 0 0 0.0025 1 1 2.5 0.005 80 5 1 1 
-0.29625 0 0 0.0025 1 1 2.5 0.005 81 5 1 1 
-0.29375 0 0 0.0025 1 1 2.5 0.005 82 5 1 1 
-0.29125 0 0 0.0025 1 1 2.5 0.005 83 5 1 1 
-0.28875 0 0 0.0025 1 1 2.5 0.005 84 5 1 1 
-0.28625 0 0 0.0025 1 1 2.5 0.005 85 5 1 1 
-0.28375 0 0 0.0025 1 1 2.5 0.005 86 5 1 1 
-0.28125 0 0 0.0025 1 1 2.5 0.005 87 5 1 1 
-0.27875 0 0 0.0025 1 1 2.5 0.005 88 5 1 1 
-0.27625 0 0 0.0025 1 1 2.5 0.005 89 5 1 1 
-0.27375 0 0 0.0025 1 1 2.5 0.005 90 5 1 1 
-0.27125 0 0 0.0025 1 1 2.5 0.005 91 5 1 1 
-0.26875 0 0 0.0025 1 1 2.5 0.005 92 5 1 1 
-0.26625 0 0 0.0025 1 1 2.5 0.005 93 5 1 1 
-0.26375 0 0 0.0025 1 1 2.5 0.005 94 5 1 1 
-0.26125 0 0 0.0025 1 1 2.5 0.005 95 5 1 1 
-0.25875 0 0 0.0025 1 1 2.5 0.005 96 5 1 1 
-0.25625 0 0 0.0025 1 1 2.5 0.005 97 5 1 1 
-0.25375 0 0 0.0025 1 1 2.5 0.005 98 5 1 1 
-0.25125 0 0 0.0025 1 1 2.5 0.005 99 5 1 1 
-0.24875 0 0 0.0025 1 1 2.5 0.005 100 5 1 1 
-0.24625 0 0 0.0025 1 1 2.5 0.005 101 5 1 1 
-0.24375 0 0 0.0025 1 1 2.5 0.005 102 5 1 1 
-0.24125 0 0 0.0025 1 1 2.5 0.005 103 5 1 1 
-0.23875 0 0 0.0025 1 1 2.5 0.005 104 5 1 1 
-0.23625 0 0 0.0025 1 1 2.5 0.005 105 5 1 1 
-0.23375 0 0 0.0025 1 1 2.5 0.005 106 5 1 1 
-0.23125 0 0 0.0025 1 1 2.5 0.005 107 5 1 1 
-0.22875 0 0 0.0025 1 1 2.5 0.005 108 5 1 1 
-0.22625 0 0 0.0025 1 1 2.5 0.005 109 5 1 1 
-0.22375 0 0 0.0025 1 1 2.5 0.005 110 5 1 1 
-0.22125 0 0 0.0025 1 1 2.5 0.005 111 5 1 1 
-0.21875 0 0 0.0025 1 1 2.5 0.005 112 5 1 1 
-0.21625 0 0 0.0025 1 1 2.5 0.005 113 5 1 1 
-0.21375 0 0 0.0025 1 1 2.5 0.005 114 5 1 1 
-0.21125 0 0 0.0025 1 1 2.5 0.005 115 5 1 1 
-0.20875 0 0 0.0025 1 1 2.5 0.005 116 5 1 1 
-0.20625 0 0 0.0025 1 1 2.5 0.005 117 5 1 1 
-0.20375 0 0 0.0025 1 1 2.5 0.005 118 5 1 1 
-0.20125 0 0 0.0025 1 1 2.5 0.005 119 5 1 1 
-0.19875 0 0 0.0025 1 1 2.5 0.005 120 5 1 1 
-0.19625 0 0 0.0025 1 1 2.5 0.005 121 5 1 1 
-0.19375 0 0 0.0025 1 1 2.5 0.005 122 5 1 1 
-0.19125 0 0 0.0025 1 1 2.5 0.005 123 5 1 1 
-0.18875 0 0 0.0025 1 1 2.5 0.005 124 5 1 1 
-0.18625 0 0 0.0025 1 1 2.5 0.005 125 5 1 1 
-0.18375 0 0 0.0025 1 1 2.5 0.005 126 5 1 1 
-0.18125 0 0 0.0025 1 1 2.5 0.005 127 5 1 1 
-0.17875 0 0 0.0025 1 1 2.5 0.005 128 5 1 1 
-0.17625 0 0 0.0025 1 1 2.5 0.005 129 5 1 1 
-0.17375 0 0 0.0025 1 1 2.5 0.005 130 5 1 1 
-0.17125 0 0 0.0025 1 1 2.5 0.005 131 5 1 1 
-0.16875 0 0 0.0025 1 1 2.5 0.005 132 5 1 1 
-0.16625 0 0 0.0025 1 1 2.5 0.005 133 5 1 1 
-0.16375 0 0 0.0025 1 1 2.5 0.005 134 5 1 1 
-0.16125 0 0 0.0025 1 1 2.5 0.005 135 5 1 1 
-0.15875 0 0 0.0025 1 1 2.5 0.005 136 5 1 1 
-0.15625 0 0 0.0025 1 1 2.5 0.005 137 5 1 1 
-0.15375 0 0 0.0025 1 1 2.5 0.005 138 5 1 1 
-0.15125 0 0 0.0025 1 1 2.5 0.005 139 5 1 1 
-0.14875 0 0 0.0025 1 1 2.5 0.005 140 5 1 1 
-0.14625 0 0 0.0025 1 1 2.5 0.005 141 5 1 1 
-0.14375 0 0 0.0025 1 1 2.5 0.005 142 5 1 1 
-0.14125 0 0 0.0025 1 1 2.5 0.005 143 5 1 1 
-0.13875 0 0 0.0025 1 1 2.5 0.005 144 5 1 1 
-0.13625 0 0 0.0025 1 1 2.5 0.005 145 5 1 1 
-0.13375 0 0 0.0025 1 1 2.5 0.005 146 5 1 1 
-0.13125 0 0 0.0025 1 1 2.5 0.005 147 5 1 1 
-0.12875 0 0 0.0025 1 1 2.5 0.005 148 5 1 1 
-0.12625 0 0 0.0025 1 1 2.5 0.005 149 5 1 1 
-0.12375 0 0 0.0025 1 1 2.5 0.005 150 5 1 1 
-0.12125 0 0 0.0025 1 1 2.5 0.005 151 5 1 1 
-0.11875 0 0 0.0025 1 1 2.5 0.005 152 5 1 1 
-0.11625 0 0 0.0025 1 1 2.5 0.005 153 5 1 1 
-0.11375 0 0 0.0025 1 1 2.5 0.005 154 5 1 1 
-0.11125 0 0 0.0025 1 1 2.5 0.005 155 5 1 1 
-0.10875 0 0 0.0025 1 1 2.5 0.005 156 5 1 1 
-0.10625 0 0 0.0025 1 1 2.5 0.005 157 5 1 1 
-0.10375 0 0 0.0025 1 1 2.5 0.005 158 5 1 1 
-0.10125 0 0 0.0025 1 1 2.5 0.005 159 5 1 1 
-0.09875 0 0 0.0025 1 1 2.5 0.005 160 5 1 1 
-0.09625 0 0 0.0025 1 1 2.5 0.005 161 5 1 1 
-0.09375 0 0 0.0025 1 1 2.5 0.005 162 5 1 1 
-0.09125 0 0 0.0025 1 1 2.5 0.005 163 5 1 1 
-0.08875 0 0 0.0025 1 1 2.5 0.005 164 5 1 1 
-0.08625 0 0 0.0025 1 1 2.5 0.005 165 5 1 1 
-0.08375 0 0 0.0025 1 1 2.5 0.005 166 5 1 1 
-0.08125 0 0 0.0025 1 1 2.5 0.005 167 5 1 1 
-0.07875 0 0 0.0025 1 1 2.5 0.005 168 5 1 1 
-0.07625 0 0 0.0025 1 1 2.5 0.005 169 5 1 1 
-0.07375 0 0 0.0025 1 1 2.5 0.005 170 5 1 1 
-0.07125 0 0 0.0025 1 1 2.5 0.005 171 5 1 1 
-0.06875 0 0 0.0025 1 1 2.5 0.005 172 5 1 1 
-0.06625 0 0 0.0025 1 1 2.5 0.005 173 5 1 1 
-0.06375 0 0 0.0025 1 1 2.5 0.005 174 5 1 1 
-0.06125 0 0 0.0025 1 1 2.5 0.005 175 5 1 1 
-0.05875 0 0 0.0025 1 1 2.5 0.005 176 5 1 1 
-0.05625 -1.22972e-46 -1.12104e-44 0.0025 1 1 2.5 0.005 177 5 1 1 
-0.05375 -1.68511e-16 -1.12104e-44 0.0025 1 1 2.5 0.005 178 5 1 1 
-0.05125 -3.35437e-16 0 0.0025 1 1 2.5 0.005 179 5 1 1 
-0.04875 -5.1818e-16 -5.68434e-14 0.0025 1 1 2.5 0.005 180 5 1 1 
-0.04625 -7.32051e-16 -2.24208e-44 0.0025 1 1 2.5 0.005 181 5 1 1 
-0.04375 -1.02772e-15 -4.48416e-44 0.0025 1 1 2.5 0.005 182 5 1 1 
-0.04125 -1.55195e-15 -1.12104e-44 0.0025 1 1 2.5 0.005 183 5 1 1 
-0.03875 -2.01879e-15 -5.68434e-14 0.0025 1 1 2.5 0.005 184 5 1 1 
-0.03625 -2.46058e-15 -5.68434e-14 0.0025 1 1 2.5 0.005 185 5 1 1 
-0.03375 -4.17864e-15 5.68434e-14 0.0025 1 1 2.5 0.005 186 4 1 1 
-0.03125 -4.89249e-16 6.31089e-28 0.0025 1 1 2.5 0.005 187 3 1 1 
-0.02875 -7.10611e-16 -8.96831e-44 0.0025 1 1 2.5 0.005 188 3 1 1 
-0.02625 -1.13896e-15 -6.31089e-28 0.0025 1 1 2.5 0.005 189 3 1 1 
-0.02375 1.61094e-15 -1.13687e-13 0.0025 1 1 2.5 0.005 190 4 1 1 
-0.02125 6.39293e-16 5.91646e-28 0.0025 1 1 2.5 0.005 191 5 1 1 
-0.01875 1.86269e-15 1.7053e-13 0.0025 1 1 2.5 0.005 192 5 1 1 
-0.01625 6.17725e-16 -5.91646e-28 0.0025 1 1 2.5 0.005 193 4 1 1 
-0.01375 -2.96361e-16 -5.68434e-14 0.0025 1 1 2.5 0.005 194 4 1 1 
-0.01125 1.15201e-15 1.13687e-13 0.0025 1 1 2.5 0.005 195 3 1 1 
-0.00875 8.66476e-16 -1.13687e-13 0.0025 1 1 2.5 0.005 196 3 1 1 
-0.00625 4.0977e-16 -2.84217e-13 0.0025 1 1 2.5 0.005 197 4 1 1 
-0.00375 1.35471e-16 -3.9443e-29 0.0025 1 1 2.5 0.005 198 3 1 1 
-0.00125 -2.54677e-16 5.68434e-14 0.0025 1 1 2.5 0.005 199 3 1 1 
0.00125 -3.37211e-16 2.27374e-13 0.0025 1 1 2.5 0.005 200 4 1 1 
0.00375 4.43318e-17 -5.68434e-14 0.0025 1 1 2.5 0.005 201 3 1 1 
0.00625 -6.84479e-16 -5.68434e-14 0.0025 1 1 2.5 0.005 202 3 1 1 
0.00875 -6.25525e-17 0 0.0025 1 1 2.5 0.005 203 3 1 1 
0.01125 -3.48887e-16 5.68434e-14 0.0025 1 1 2.5 0.005 204 3 1 1 
0.01375 -1.38734e-15 -5.68434e-14 0.0025 1 1 2.5 0.005 205 3 1 1 
0.01625 1.031e-15 -1.13687e-13 0.0025 1 1 2.5 0.005 206 5 1 1 
0.01875 -2.43575e-15 -3.97904e-13 0.0025 1 1 2.5 0.005 207 5 1 1 
0.02125 -4.58135e-16 1.02318e-12 0.0025 1 1 2.5 0.005 208 4 1 1 
0.02375 9.93131e-17 -1.7053e-13 0.0025 1 1 2.5 0.005 209 5 1 1 
0.02625 -6.24129e-16 1.7053e-13 0.0025 1 1 2.5 0.005 210 4 1 1 
0.02875 7.87677e-16 0 0.0025 1 1 2.5 0.005 211 3 1 1 
0.03125 3.63538e-15 -2.84217e-13 0.0025 1 1 2.5 0.005 212 4 1 1 
0.03375 2.5595e-15 -5.68434e-14 0.0025 1 1 2.5 0.005 213 5 1 1 
0.03625 2.16818e-15 -3.9443e-29 0.0025 1 1 2.5 0.005 214 5 1 1 
0.03875 1.65172e-15 0 0.0025 1 1 2.5 0.005 215 5 1 1 
0.04125 1.12772e-15 2.24208e-44 0.0025 1 1 2.5 0.005 216 5 1 1 
0.04375 7.65558e-16 2.24208e-44 0.0025 1 1 2.5 0.005 217 5 1 1 
0.04625 5.17835e-16 5.68434e-14 0.0025 1 1 2.5 0.005 218 5 1 1 
0.04875 3.52344e-16 -5.68434e-14 0.0025 1 1 2.5 0.005 219 5 1 1 
0.05125 1.8526e-16 5.68434e-14 0.0025 1 1 2.5 0.005 220 5 1 1 
0.05375 1.29592e-46 1.12104e-44 0.0025 1 1 2.5 0.005 221 5 1 1 
0.05625 0 0 0.0025 1 1 2.5 0.005 222 5 1 1 
0.05875 0 0 0.0025 1 1 2.5 0.005 223 5 1 1 
0.06125 0 0 0.0025 1 1 2.5 0.005 224 5 1 1 
0.06375 0 0 0.0025 1 1 2.5 0.005 225 5 1 1 
0.06625 0 0 0.0025 1 1 2.5 0.005 226 5 1 1 
0.06875 0 0 0.0025 1 1 2.5 0.005 227 5 1 1 
0.07125 0 0 0.0025 1 1 2.5 0.005 228 5 1 1 
0.07375 0 0 0.0025 1 1 2.5 0.005 229 5 1 1 
0.07625 0 0 0.0025 1 1 2.5 0.005 230 5 1 1 
0.07875 0 0 0.0025 1 1 2.5 0.005 231 5 1 1 
0.08125 0 0 0.0025 1 1 2.5 0.005 232 5 1 1 
0.08375 0 0 0.0025 1 1 2.5 0.005 233 5 1 1 
0.08625 0 0 0.0025 1 1 2.5 0.005 234 5 1 1 
0.08875 0 0 0.0025 1 1 2.5 0.005 235 5 1 1 
0.09125 -1.56092e-46 -1.12104e-44 0.0025 1 1 2.5 0.005 236 5 1 1 
0.09375 -3.35691e-17 -1.12104e-44 0.0025 1 1 2.5 0.005 237 5 1 1 
0.09625 -2.00225e-16 1.12104e-44 0.0025 1 1 2.5 0.005 238 5 1 1 
0.09875 -3.32868e-16 1.12104e-44 0.0025 1 1 2.5 0.005 239 5 1 1 
0.10125 -2.94325e-16 0 0.0025 1 1 2.5 0.005 240 5 1 1 
0.10375 -4.72842e-16 5.68434e-14 0.0025 1 1 2.5 0.005 241 5 1 1 
0.10625 2.19274e-15 5.68434e-14 0.0025 1 1 2.5 0.005 242 5 1 1 
0.10875 1.25348e-15 1.13687e-13 0.0025 1 1 2.5 0.005 243 5 1 1 
0.11125 9.02858e-16 1.13687e-13 0.0025 1 1 2.5 0.005 244 5 1 1 
0.11375 -1.71585e-15 3.25101e-43 0.0025 1 1 2.5 0.005 245 5 1 1 
0.11625 3.63372e-15 -3.41061e-13 0.0025 1 1 2.5 0.005 246 5 1 1 
0.11875 6.63226e-16 -2.84217e-13 0.0025 1 1 2.5 0.005 247 5 1 1 
0.12125 1.55659e-15 4.54747e-13 0.0025 1 1 2.5 0.005 248 5 1 1 
0.12375 -2.11548e-15 6.82121e-13 0.0025 1 1 2.5 0.005 249 4 1 1 
0.12625 2.11548e-15 -6.82121e-13 0.0025 1 1 2.5 0.005 250 4 1 1 
0.12875 -1.55659e-15 -4.54747e-13 0.0025 1 1 2.5 0.005 251 5 1 1 
0.13125 -6.63226e-16 2.84217e-13 0.0025 1 1 2.5 0.005 252 5 1 1 
0.13375 -3.63372e-15 3.41061e-13 0.0025 1 1 2.5 0.005 253 5 1 1 
0.13625 1.71585e-15 -3.25101e-43 0.0025 1 1 2.5 0.005 254 5 1 1 
0.13875 -9.02858e-16 -1.13687e-13 0.0025 1 1 2.5 0.005 255 5 1 1 
0.14125 -1.25348e-15 -1.13687e-13 0.0025 1 1 2.5 0.005 256 5 1 1 
0.14375 -2.19274e-15 -5.68434e-14 0.0025 1 1 2.5 0.005 257 5 1 1 
0.14625 4.72842e-16 -5.68434e-14 0.0025 1 1 2.5 0.005 258 5 1 1 
0.14875 2.94325e-16 0 0.0025 1 1 2.5 0.005 259 5 1 1 
0.15125 3.32868e-16 -1.12104e-44 0.0025 1 1 2.5 0.005 260 5 1 1 
0.15375 2.00225e-16 -1.12104e-44 0.0025 1 1 2.5 0.005 261 5 1 1 
0.15625 3.35691e-17 1.12104e-44 0.0025 1 1 2.5 0.005 262 5 1 1 
0.15875 1.56092e-46 1.12104e-44 0.0025 1 1 2.5 0.005 263 5 1 1 
0.16125 0 0 0.0025 1 1 2.5 0.005 264 5 1 1 
0.16375 0 0 0.0025 1 1 2.5 0.005 265 5 1 1 
0.16625 0 0 0.0025 1 1 2.5 0.005 266 5 1 1 
0.16875 0 0 0.0025 1 1 2.5 0.005 267 5 1 1 
0.17125 0 0 0.0025 1 1 2.5 0.005 268 5 1 1 
0.17375 0 0 0.0025 1 1 2.5 0.005 269 5 1 1 
0.17625 0 0 0.0025 1 1 2.5 0.005 270 5 1 1 
0.17875 0 0 0.0025 1 1 2.5 0.005 271 5 1 1 
0.18125 0 0 0.0025 1 1 2.5 0.005 272 5 1 1 
0.18375 0 0 0.0025 1 1 2.5 0.005 273 5 1 1 
0.18625 0 0 0.0025 1 1 2.5 0.005 274 5 1 1 
0.18875 0 0 0.0025 1 1 2.5 0.005 275 5 1 1 
0.19125 0 0 0.0025 1 1 2.5 0.005 276 5 1 1 
0.19375 0 0 0.0025 1 1 2.5 0.005 277 5 1 1 
0.19625 0 0 0.0025 1 1 2.5 0.005 278 5 1 1 
0.19875 0 0 0.0025 1 1 2.5 0.005 279 5 1 1 
0.20125 0 0 0.0025 1 1 2.5 0.005 280 5 1 1 
0.20375 -2.33205e-47 -1.12104e-44 0.0025 1 1 2.5 0.005 281 5 1 1 
0.20625 -5.06864e-17 -5.68434e-14 0.0025 1 1 2.5 0.005 282 5 1 1 
0.20875 -2.19008e-16 5.68434e-14 0.0025 1 1 2.5 0.005 283 5 1 1 
0.21125 -4.54123e-16 -5.68434e-14 0.0025 1 1 2.5 0.005 284 5 1 1 
0.21375 -6.71232e-16 -4.48416e-44 0.0025 1 1 2.5 0.005 285 5 1 1 
0.21625 -1.13905e-15 0 0.0025 1 1 2.5 0.005 286 5 1 1 
0.21875 -1.63709e-15 3.36312e-44 0.0025 1 1 2.5 0.005 287 5 1 1 
0.22125 -2.01253e-15 5.68434e-14 0.0025 1 1 2.5 0.005 288 5 1 1 
0.22375 -2.4161e-15 1.13687e-13 0.0025 1 1 2.5 0.005 289 5 1 1 
0.22625 1.15312e-15 4.54747e-13 0.0025 1 1 2.5 0.005 290 5 1 1 
0.22875 -2.33369e-16 2.84217e-13 0.0025 1 1 2.5 0.005 291 5 1 1 
0.23125 -1.62065e-15 -2.84217e-13 0.0025 1 1 2.5 0.005 292 5 1 1 
0.23375 -3.72046e-15 -5.11591e-13 0.0025 1 1 2.5 0.005 293 5 1 1 
0.23625 -1.21068e-15 6.25278e-13 0.0025 1 1 2.5 0.005 294 5 1 1 
0.23875 -4.36488e-15 5.68434e-13 0.0025 1 1 2.5 0.005 295 5 1 1 
0.24125 3.39831e-15 -6.82121e-13 0.0025 1 1 2.5 0.005 296 5 1 1 
0.24375 -2.32034e-15 -5.68434e-13 0.0025 1 1 2.5 0.005 297 5 1 1 
0.24625 -1.12681e-16 4.54747e-13 0.0025 1 1 2.5 0.005 298 5 1 1 
0.24875 -7.39607e-15 3.97904e-13 0.0025 1 1 2.5 0.005 299 3 1 1 
0.25125 7.39607e-15 -3.97904e-13 0.0025 1 1 2.5 0.005 300 3 1 1 
0.25375 1.12681e-16 -4.54747e-13 0.0025 1 1 2.5 0.005 301 5 1 1 
0.25625 2.32034e-15 5.68434e-13 0.0025 1 1 2.5 0.005 302 5 1 1 
0.25875 -3.39831e-15 6.82121e-13 0.0025 1 1 2.5 0.005 303 5 1 1 
0.26125 4.36488e-15 -5.68434e-13 0.0025 1 1 2.5 0.005 304 5 1 1 
0.26375 1.21068e-15 -6.25278e-13 0.0025 1 1 2.5 0.005 305 5 1 1 
0.26625 3.72046e-15 5.11591e-13 0.0025 1 1 2.5 0.005 306 5 1 1 
0.26875 1.62065e-15 2.84217e-13 0.0025 1 1 2.5 0.005 307 5 1 1 
0.27125 2.33369e-16 -2.84217e-13 0.0025 1 1 2.5 0.005 308 5 1 1 
0.27375 -1.15312e-15 -4.54747e-13 0.0025 1 1 2.5 0.005 309 5 1 1 
0.27625 2.4161e-15 -1.13687e-13 0.0025 1 1 2.5 0.005 310 5 1 1 
0.27875 2.01253e-15 -5.68434e-14 0.0025 1 1 2.5 0.005 311 5 1 1 
0.28125 1.63709e-15 -3.36312e-44 0.0025 1 1 2.5 0.005 312 5 1 1 
0.28375 1.13905e-15 0 0.0025 1 1 2.5 0.005 313 5 1 1 
0.28625 6.71232e-16 4.48416e-44 0.0025 1 1 2.5 0.005 314 5 1 1 
0.28875 4.54123e-16 5.68434e-14 0.0025 1 1 2.5 0.005 315 5 1 1 
0.29125 2.19008e-16 -5.68434e-14 0.0025 1 1 2.5 0.005 316 5 1 1 
0.29375 5.06864e-17 5.68434e-14 0.0025 1 1 2.5 0.005 317 5 1 1 
0.29625 2.33205e-47 1.12104e-44 0.0025 1 1 2.5 0.005 318 5 1 1 
0.29875 0 0 0.0025 1 1 2.5 0.005 319 5 1 1 
0.30125 0 0 0.0025 1 1 2.5 0.005 320 5 1 1 
0.30375 0 0 0.0025 1 1 2.5 0.005 321 5 1 1 
0.30625 0 0 0.0025 1 1 2.5 0.005 322 5 1 1 
0.30875 0 0 0.0025 1 1 2.5 0.005 323 5 1 1 
0.31125 0 0 0.0025 1 1 2.5 0.005 324 5 1 1 
0.31375 0 0 0.0025 1 1 2.5 0.005 325 5 1 1 
0.31625 0 0 0.0025 1 1 2.5 0.005 326 5 1 1 
0.31875 0 0 0.0025 1 1 2.5 0.005 327 5 1 1 
0.32125 0 0 0.0025 1 1 2.5 0.005 328 5 1 1 
0.32375 0 0 0.0025 1 1 2.5 0.005 329 5 1 1 
0.32625 0 0 0.0025 1 1 2.5 0.005 330 5 1 1 
0.32875 0 0 0.0025 1 1 2.5 0.005 331 5 1 1 
0.33125 0 0 0.0025 1 1 2.5 0.005 332 5 1 1 
0.33375 0 0 0.0025 1 1 2.5 0.005 333 5 1 1 
0.33625 0 0 0.0025 1 1 2.5 0.005 334 5 1 1 
0.33875 0 0 0.0025 1 1 2.5 0.005 335 5 1 1 
0.34125 0 0 0.0025 1 1 2.5 0.005 336 5 1 1 
0.34375 0 0 0.0025 1 1 2.5 0.005 337 5 1 1 
0.34625 -3.33367e-47 -8.96831e-44 0.0025 1 1 2.5 0.005 338 5 1 1 
0.34875 -1.69037e-16 -4.54747e-13 0.0025 1 1 2.5 0.005 339 5 1 1 
0.35125 -1.08139e-15 -3.41061e-13 0.0025 1 1 2.5 0.005 340 5 1 1 
0.35375 -1.58358e-14 -2.81375e-11 0.0025 1 1 2.5 0.005 341 4 1 1 
