# Time [s]: 0.0760752
# Columns: pos [m], vel [m/s], acc [m/s^2], mass [kg], dens [kg/m^3], pres [Pa], ene [J/kg], sml [m], id, neighbor, alpha, gradh, ...additional?
-0.687833 -3.02653 -6.35192 0.0025 0.0398764 0.012264 0.768885 0.125387 0 5 1 1.04115 
-0.63617 -2.46378 -7.54138 0.0025 0.0692679 0.0237718 0.85798 0.0721835 1 5 1 0.978264 
-0.606381 -2.13955 -8.21452 0.0025 0.103793 0.041989 1.01138 0.0481729 2 4 1 0.94883 
-0.585548 -1.91348 -8.67857 0.0025 0.13902 0.0632176 1.13685 0.0359659 3 4 1 0.952432 
-0.569492 -1.73969 -9.03199 0.0025 0.173251 0.0860075 1.2411 0.0288599 4 4 1 0.960961 
-0.556285 -1.59708 -9.31906 0.0025 0.205786 0.109424 1.32935 0.024297 5 4 1 0.968776 
-0.544985 -1.47532 -9.56257 0.0025 0.237021 0.13335 1.40654 0.0210951 6 4 1 0.974828 
-0.535065 -1.36863 -9.77104 0.0025 0.267272 0.157758 1.47565 0.0187076 7 4 1 0.979352 
-0.526197 -1.27339 -9.9816 0.0025 0.296748 0.182629 1.53861 0.0168493 8 4 1 0.982756 
-0.518162 -1.18685 -10.1961 0.0025 0.325632 0.207979 1.59676 0.0153548 9 4 1 0.985453 
-0.510804 -1.10766 -10.34 0.0025 0.353985 0.233755 1.6509 0.0141249 10 4 1 0.987521 
-0.504008 -1.03445 -10.5424 0.0025 0.381894 0.259946 1.70171 0.0130927 11 4 1 0.989196 
-0.497689 -0.966232 -10.6913 0.0025 0.409436 0.286556 1.74972 0.0122119 12 4 1 0.990547 
-0.491779 -0.902315 -10.857 0.0025 0.43664 0.313551 1.79527 0.0114511 13 4 1 0.991649 
-0.486224 -0.842104 -11.025 0.0025 0.46357 0.340945 1.83872 0.0107859 14 4 1 0.99259 
-0.480982 -0.785191 -11.1438 0.0025 0.490223 0.368693 1.88026 0.0101994 15 4 1 0.993376 
-0.476016 -0.731137 -11.2878 0.0025 0.516611 0.396765 1.92007 0.00967846 16 4 1 0.99405 
-0.471296 -0.679837 -11.4035 0.0025 0.542757 0.425153 1.95833 0.00921223 17 4 1 0.99464 
-0.466797 -0.630852 -11.4918 0.0025 0.568639 0.453797 1.99513 0.00879293 18 4 1 0.995146 
-0.462498 -0.584114 -11.5937 0.0025 0.594266 0.482678 2.03059 0.00841375 19 4 1 0.995589 
-0.458379 -0.539373 -11.6693 0.0025 0.619647 0.511777 2.06482 0.00806911 20 4 1 0.995975 
-0.454425 -0.496518 -11.7558 0.0025 0.644787 0.541074 2.09791 0.0077545 21 4 1 0.996323 
-0.450621 -0.45534 -11.7956 0.0025 0.669677 0.570533 2.12991 0.00746629 22 4 1 0.996624 
-0.446955 -0.415721 -11.8724 0.0025 0.694323 0.600137 2.1609 0.00720126 23 4 1 0.996889 
-0.443417 -0.377631 -11.9314 0.0025 0.718754 0.629903 2.19098 0.00695649 24 4 1 0.997133 
-0.439997 -0.340872 -11.9588 0.0025 0.742947 0.65978 2.22017 0.00672996 25 4 1 0.997345 
-0.436685 -0.305346 -12.021 0.0025 0.766915 0.689765 2.24853 0.00651963 26 4 1 0.997543 
-0.433475 -0.271061 -12.028 0.0025 0.790653 0.719835 2.2761 0.00632389 27 4 1 0.99772 
-0.43036 -0.237932 -12.0583 0.0025 0.814148 0.749953 2.30291 0.00614139 28 4 1 0.997878 
-0.427332 -0.205852 -12.0888 0.0025 0.837418 0.780131 2.329 0.00597074 29 4 1 0.998038 
-0.424388 -0.17487 -12.0026 0.0025 0.860393 0.810256 2.35434 0.0058113 30 4 1 0.998186 
-0.42152 -0.145027 -11.9174 0.0025 0.88302 0.84023 2.37889 0.00566239 31 4 1 0.998263 
-0.418724 -0.115943 -12.3036 0.0025 0.905604 0.870462 2.40304 0.00552117 32 4 1 0.998336 
-0.415998 -0.0867064 -12.6558 0.0025 0.928291 0.901208 2.42699 0.00538624 33 4 1 0.998741 
-0.413337 -0.0599547 -10.2198 0.0025 0.949075 0.929625 2.44859 0.00526829 34 4 1 0.999204 
-0.410729 -0.0409175 -7.05763 0.0025 0.965971 0.952643 2.46572 0.00517614 35 4 1 0.998794 
-0.408161 -0.0207058 -13.2068 0.0025 0.985077 0.978968 2.48504 0.00507575 36 4 1 0.997677 
-0.405652 0.0163711 -20.6524 0.0025 1.01301 1.01858 2.51342 0.00493576 37 4 1 0.998929 
-0.403223 0.0488961 -8.81285 0.0025 1.0371 1.05291 2.53729 0.00482115 38 4 1 1.00005 
-0.400831 0.0537668 1.08159 0.0025 1.04398 1.06238 2.54374 0.00478938 39 3 1 1 
-0.398434 0.0489123 2.97504 0.0025 1.04008 1.05669 2.53982 0.00480734 40 4 1 0.999977 
-0.396023 0.0413768 3.98725 0.0025 1.03345 1.04722 2.53328 0.00483816 41 4 1 0.999889 
-0.393596 0.032727 4.32865 0.0025 1.0261 1.03677 2.52599 0.00487282 42 4 1 0.999852 
-0.391151 0.0241692 4.10271 0.0025 1.01905 1.02677 2.51898 0.00490653 43 4 1 0.999856 
-0.388689 0.0166672 3.45488 0.0025 1.01301 1.01825 2.51297 0.00493576 44 4 1 0.99989 
-0.386215 0.010759 2.62316 0.0025 1.00834 1.01167 2.50831 0.00495863 45 4 1 0.999931 
-0.383731 0.00652674 1.81973 0.0025 1.00503 1.00703 2.50501 0.00497495 46 4 1 0.999964 
-0.38124 0.00373621 1.16719 0.0025 1.00287 1.004 2.50285 0.00498569 47 4 1 0.999984 
-0.378745 0.00202512 0.69882 0.0025 1.00155 1.00216 2.50154 0.00499225 48 4 1 0.999994 
-0.376248 0.00104167 0.393167 0.0025 1.0008 1.00111 2.50079 0.00499602 49 4 1 0.999998 
-0.373749 0.000509063 0.208725 0.0025 1.00039 1.00054 2.50038 0.00499806 50 4 1 0.999999 
-0.37125 0.000236421 0.104788 0.0025 1.00018 1.00025 2.50018 0.0049991 51 4 1 1 
-0.36875 0.000104308 0.049795 0.0025 1.00008 1.00011 2.50008 0.0049996 52 4 1 1 
-0.36625 4.36812e-05 0.022398 0.0025 1.00003 1.00005 2.50003 0.00499983 53 4 1 1 
-0.36375 1.73409e-05 0.00953092 0.0025 1.00001 1.00002 2.50001 0.00499993 54 4 1 1 
-0.36125 6.51515e-06 0.00383268 0.0025 1.00001 1.00001 2.5 0.00499997 55 4 1 1 
-0.35875 2.31158e-06 0.00145423 0.0025 1 1 2.5 0.00499999 56 4 1 1 
-0.35625 7.72334e-07 0.00051951 0.0025 1 1 2.5 0.005 57 4 1 1 
-0.35375 2.42113e-07 0.000174233 0.0025 1 1 2.5 0.005 58 4 1 1 
-0.35125 7.08622e-08 5.46438e-05 0.0025 1 1 2.5 0.005 59 4 1 1 
-0.34875 1.92335e-08 1.59399e-05 0.0025 1 1 2.5 0.005 60 4 1 1 
-0.34625 4.79457e-09 4.29198e-06 0.0025 1 1 2.5 0.005 61 4 1 1 
-0.34375 1.08185e-09 1.0548e-06 0.0025 1 1 2.5 0.005 62 4 1 1 
-0.34125 2.15756e-10 2.32425e-07 0.0025 1 1 2.5 0.005 63 4 1 1 
-0.33875 3.64289e-11 4.45404e-08 0.0025 1 1 2.5 0.005 64 4 1 1 
-0.33625 4.72999e-12 6.98338e-09 0.0025 1 1 2.5 0.005 65 4 1 1 
-0.33375 3.04172e-13 7.50788e-10 0.0025 1 1 2.5 0.005 66 4 1 1 
-0.33125 -1.47575e-14 -1.09139e-11 0.0025 1 1 2.5 0.005 67 4 1 1 
-0.32875 -1.08812e-15 -3.52429e-12 0.0025 1 1 2.5 0.005 68 5 1 1 
-0.32625 2.20943e-16 -5.68434e-14 0.0025 1 1 2.5 0.005 69 5 1 1 
-0.32375 5.09888e-17 5.68434e-14 0.0025 1 1 2.5 0.005 70 5 1 1 
-0.32125 1.00558e-47 1.12104e-44 0.0025 1 1 2.5 0.005 71 5 1 1 
-0.31875 0 0 0.0025 1 1 2.5 0.005 72 5 1 1 
-0.31625 0 0 0.0025 1 1 2.5 0.005 73 5 1 1 
-0.31375 0 0 0.0025 1 1 2.5 0.005 74 5 1 1 
-0.31125 0 0 0.0025 1 1 2.5 0.005 75 5 1 1 
-0.30875 0 0 0.0025 1 1 2.5 0.005 76 5 1 1 
-0.30625 0 0 0.0025 1 1 2.5 0.005 77 5 1 1 
-0.30375 0 0 0.0025 1 1 2.5 0.005 78 5 1 1 
-0.30125 0 0 0.0025 1 1 2.5 0.005 79 5 1 1 
-0.29875 0 0 0.0025 1 1 2.5 0.005 80 5 1 1 
-0.29625 0 0 0.0025 1 1 2.5 0.005 81 5 1 1 
-0.29375 0 0 0.0025 1 1 2.5 0.005 82 5 1 1 
-0.29125 0 0 0.0025 1 1 2.5 0.005 83 5 1 1 
-0.28875 0 0 0.0025 1 1 2.5 0.005 84 5 1 1 
-0.28625 0 0 0.0025 1 1 2.5 0.005 85 5 1 1 
-0.28375 0 0 0.0025 1 1 2.5 0.005 86 5 1 1 
-0.28125 0 0 0.0025 1 1 2.5 0.005 87 5 1 1 
-0.27875 0 0 0.0025 1 1 2.5 0.005 88 5 1 1 
-0.27625 0 0 0.0025 1 1 2.5 0.005 89 5 1 1 
-0.27375 0 0 0.0025 1 1 2.5 0.005 90 5 1 1 
-0.27125 0 0 0.0025 1 1 2.5 0.005 91 5 1 1 
-0.26875 0 0 0.0025 1 1 2.5 0.005 92 5 1 1 
-0.26625 0 0 0.0025 1 1 2.5 0.005 93 5 1 1 
-0.26375 0 0 0.0025 1 1 2.5 0.005 94 5 1 1 
-0.26125 0 0 0.0025 1 1 2.5 0.005 95 5 1 1 
-0.25875 0 0 0.0025 1 1 2.5 0.005 96 5 1 1 
-0.25625 0 0 0.0025 1 1 2.5 0.005 97 5 1 1 
-0.25375 0 0 0.0025 1 1 2.5 0.005 98 5 1 1 
-0.25125 0 0 0.0025 1 1 2.5 0.005 99 5 1 1 
-0.24875 0 0 0.0025 1 1 2.5 0.005 100 5 1 1 
-0.24625 0 0 0.0025 1 1 2.5 0.005 101 5 1 1 
-0.24375 0 0 0.0025 1 1 2.5 0.005 102 5 1 1 
-0.24125 0 0 0.0025 1 1 2.5 0.005 103 5 1 1 
-0.23875 0 0 0.0025 1 1 2.5 0.005 104 5 1 1 
-0.23625 0 0 0.0025 1 1 2.5 0.005 105 5 1 1 
-0.23375 0 0 0.0025 1 1 2.5 0.005 106 5 1 1 
-0.23125 0 0 0.0025 1 1 2.5 0.005 107 5 1 1 
-0.22875 0 0 0.0025 1 1 2.5 0.005 108 5 1 1 
-0.22625 0 0 0.0025 1 1 2.5 0.005 109 5 1 1 
-0.22375 0 0 0.0025 1 1 2.5 0.005 110 5 1 1 
-0.22125 0 0 0.0025 1 1 2.5 0.005 111 5 1 1 
-0.21875 0 0 0.0025 1 1 2.5 0.005 112 5 1 1 
-0.21625 0 0 0.0025 1 1 2.5 0.005 113 5 1 1 
-0.21375 0 0 0.0025 1 1 2.5 0.005 114 5 1 1 
-0.21125 0 0 0.0025 1 1 2.5 0.005 115 5 1 1 
-0.20875 0 0 0.0025 1 1 2.5 0.005 116 5 1 1 
-0.20625 0 0 0.0025 1 1 2.5 0.005 117 5 1 1 
-0.20375 0 0 0.0025 1 1 2.5 0.005 118 5 1 1 
-0.20125 0 0 0.0025 1 1 2.5 0.005 119 5 1 1 
-0.19875 0 0 0.0025 1 1 2.5 0.005 120 5 1 1 
-0.19625 0 0 0.0025 1 1 2.5 0.005 121 5 1 1 
-0.19375 0 0 0.0025 1 1 2.5 0.005 122 5 1 1 
-0.19125 0 0 0.0025 1 1 2.5 0.005 123 5 1 1 
-0.18875 0 0 0.0025 1 1 2.5 0.005 124 5 1 1 
-0.18625 0 0 0.0025 1 1 2.5 0.005 125 5 1 1 
-0.18375 0 0 0.0025 1 1 2.5 0.005 126 5 1 1 
-0.18125 0 0 0.0025 1 1 2.5 0.005 127 5 1 1 
-0.17875 0 0 0.0025 1 1 2.5 0.005 128 5 1 1 
-0.17625 0 0 0.0025 1 1 2.5 0.005 129 5 1 1 
-0.17375 0 0 0.0025 1 1 2.5 0.005 130 5 1 1 
-0.17125 0 0 0.0025 1 1 2.5 0.005 131 5 1 1 
-0.16875 0 0 0.0025 1 1 2.5 0.005 132 5 1 1 
-0.16625 0 0 0.0025 1 1 2.5 0.005 133 5 1 1 
-0.16375 0 0 0.0025 1 1 2.5 0.005 134 5 1 1 
-0.16125 0 0 0.0025 1 1 2.5 0.005 135 5 1 1 
-0.15875 0 0 0.0025 1 1 2.5 0.005 136 5 1 1 
-0.15625 0 0 0.0025 1 1 2.5 0.005 137 5 1 1 
-0.15375 0 0 0.0025 1 1 2.5 0.005 138 5 1 1 
-0.15125 0 0 0.0025 1 1 2.5 0.005 139 5 1 1 
-0.14875 0 0 0.0025 1 1 2.5 0.005 140 5 1 1 
-0.14625 0 0 0.0025 1 1 2.5 0.005 141 5 1 1 
-0.14375 0 0 0.0025 1 1 2.5 0.005 142 5 1 1 
-0.14125 0 0 0.0025 1 1 2.5 0.005 143 5 1 1 
-0.13875 0 0 0.0025 1 1 2.5 0.005 144 5 1 1 
-0.13625 0 0 0.0025 1 1 2.5 0.005 145 5 1 1 
-0.13375 0 0 0.0025 1 1 2.5 0.005 146 5 1 1 
-0.13125 0 0 0.0025 1 1 2.5 0.005 147 5 1 1 
-0.12875 0 0 0.0025 1 1 2.5 0.005 148 5 1 1 
-0.12625 0 0 0.0025 1 1 2.5 0.005 149 5 1 1 
-0.12375 0 0 0.0025 1 1 2.5 0.005 150 5 1 1 
-0.12125 0 0 0.0025 1 1 2.5 0.005 151 5 1 1 
-0.11875 0 0 0.0025 1 1 2.5 0.005 152 5 1 1 
-0.11625 0 0 0.0025 1 1 2.5 0.005 153 5 1 1 
-0.11375 0 0 0.0025 1 1 2.5 0.005 154 5 1 1 
-0.11125 0 0 0.0025 1 1 2.5 0.005 155 5 1 1 
-0.10875 0 0 0.0025 1 1 2.5 0.005 156 5 1 1 
-0.10625 0 0 0.0025 1 1 2.5 0.005 157 5 1 1 
-0.10375 0 0 0.0025 1 1 2.5 0.005 158 5 1 1 
-0.10125 0 0 0.0025 1 1 2.5 0.005 159 5 1 1 
-0.09875 0 0 0.0025 1 1 2.5 0.005 160 5 1 1 
-0.09625 0 0 0.0025 1 1 2.5 0.005 161 5 1 1 
-0.09375 0 0 0.0025 1 1 2.5 0.005 162 5 1 1 
-0.09125 0 0 0.0025 1 1 2.5 0.005 163 5 1 1 
-0.08875 0 0 0.0025 1 1 2.5 0.005 164 5 1 1 
-0.08625 0 0 0.0025 1 1 2.5 0.005 165 5 1 1 
-0.08375 0 0 0.0025 1 1 2.5 0.005 166 5 1 1 
-0.08125 0 0 0.0025 1 1 2.5 0.005 167 5 1 1 
-0.07875 0 0 0.0025 1 1 2.5 0.005 168 5 1 1 
-0.07625 0 0 0.0025 1 1 2.5 0.005 169 5 1 1 
-0.07375 0 0 0.0025 1 1 2.5 0.005 170 5 1 1 
-0.07125 0 0 0.0025 1 1 2.5 0.005 171 5 1 1 
-0.06875 0 0 0.0025 1 1 2.5 0.005 172 5 1 1 
-0.06625 0 0 0.0025 1 1 2.5 0.005 173 5 1 1 
-0.06375 0 0 0.0025 1 1 2.5 0.005 174 5 1 1 
-0.06125 0 0 0.0025 1 1 2.5 0.005 175 5 1 1 
-0.05875 -1.43815e-46 -1.12104e-44 0.0025 1 1 2.5 0.005 176 5 1 1 
-0.05625 -1.52561e-16 -5.68434e-14 0.0025 1 1 2.5 0.005 177 5 1 1 
-0.05375 -3.21081e-16 5.68434e-14 0.0025 1 1 2.5 0.005 178 5 1 1 
-0.05125 -4.88037e-16 -5.68434e-14 0.0025 1 1 2.5 0.005 179 5 1 1 
-0.04875 -7.21625e-16 5.68434e-14 0.0025 1 1 2.5 0.005 180 5 1 1 
-0.04625 -9.52324e-16 -5.68434e-14 0.0025 1 1 2.5 0.005 181 5 1 1 
-0.04375 -1.29899e-15 -4.48416e-44 0.0025 1 1 2.5 0.005 182 5 1 1 
-0.04125 -1.78914e-15 -1.13687e-13 0.0025 1 1 2.5 0.005 183 5 1 1 
-0.03875 -2.25583e-15 1.7053e-13 0.0025 1 1 2.5 0.005 184 5 1 1 
-0.03625 -2.56251e-15 -1.7053e-13 0.0025 1 1 2.5 0.005 185 5 1 1 
-0.03375 -4.21265e-15 5.68434e-14 0.0025 1 1 2.5 0.005 186 4 1 1 
-0.03125 -5.57232e-16 6.31089e-28 0.0025 1 1 2.5 0.005 187 3 1 1 
-0.02875 -8.29439e-16 -5.68434e-14 0.0025 1 1 2.5 0.005 188 3 1 1 
-0.02625 -1.30876e-15 -6.31089e-28 0.0025 1 1 2.5 0.005 189 3 1 1 
-0.02375 9.1622e-16 5.68434e-14 0.0025 1 1 2.5 0.005 190 4 1 1 
-0.02125 -7.22737e-17 -1.13687e-13 0.0025 1 1 2.5 0.005 191 5 1 1 
-0.01875 2.81157e-15 5.68434e-14 0.0025 1 1 2.5 0.005 192 5 1 1 
-0.01625 1.21091e-15 5.68434e-14 0.0025 1 1 2.5 0.005 193 4 1 1 
-0.01375 -7.55367e-17 1.57772e-28 0.0025 1 1 2.5 0.005 194 4 1 1 
-0.01125 -1.03623e-16 -1.13687e-13 0.0025 1 1 2.5 0.005 195 3 1 1 
-0.00875 -4.54763e-16 -1.13687e-13 0.0025 1 1 2.5 0.005 196 3 1 1 
-0.00625 -4.20357e-16 -3.9443e-29 0.0025 1 1 2.5 0.005 197 4 1 1 
-0.00375 2.55484e-16 -5.68434e-14 0.0025 1 1 2.5 0.005 198 3 1 1 
-0.00125 8.35178e-17 5.68434e-14 0.0025 1 1 2.5 0.005 199 3 1 1 
0.00125 8.58906e-17 1.7053e-13 0.0025 1 1 2.5 0.005 200 3 1 1 
0.00375 3.33203e-16 -2.27374e-13 0.0025 1 1 2.5 0.005 201 4 1 1 
0.00625 9.34427e-17 1.7053e-13 0.0025 1 1 2.5 0.005 202 3 1 1 
0.00875 3.7901e-16 0 0.0025 1 1 2.5 0.005 203 3 1 1 
0.01125 -2.30554e-16 0 0.0025 1 1 2.5 0.005 204 3 1 1 
0.01375 -1.32119e-15 -5.68434e-14 0.0025 1 1 2.5 0.005 205 3 1 1 
0.01625 -2.74445e-15 -5.68434e-14 0.0025 1 1 2.5 0.005 206 3 1 1 
0.01875 2.51171e-15 1.7053e-13 0.0025 1 1 2.5 0.005 207 4 1 1 
0.02125 1.15144e-15 1.7053e-13 0.0025 1 1 2.5 0.005 208 5 1 1 
0.02375 2.82838e-15 1.13687e-13 0.0025 1 1 2.5 0.005 209 5 1 1 
0.02625 2.20561e-15 1.13687e-13 0.0025 1 1 2.5 0.005 210 4 1 1 
0.02875 1.22889e-15 0 0.0025 1 1 2.5 0.005 211 3 1 1 
0.03125 2.63787e-16 -1.13687e-13 0.0025 1 1 2.5 0.005 212 4 1 1 
0.03375 -3.73119e-16 -1.13687e-13 0.0025 1 1 2.5 0.005 213 5 1 1 
0.03625 1.62582e-15 -3.9443e-29 0.0025 1 1 2.5 0.005 214 5 1 1 
0.03875 1.431e-15 -5.68434e-14 0.0025 1 1 2.5 0.005 215 5 1 1 
0.04125 1.17869e-15 5.68434e-14 0.0025 1 1 2.5 0.005 216 5 1 1 
0.04375 9.51979e-16 -5.68434e-14 0.0025 1 1 2.5 0.005 217 5 1 1 
0.04625 7.21169e-16 5.68434e-14 0.0025 1 1 2.5 0.005 218 5 1 1 
0.04875 4.87899e-16 -5.68434e-14 0.0025 1 1 2.5 0.005 219 5 1 1 
0.05125 3.20878e-16 5.68434e-14 0.0025 1 1 2.5 0.005 220 5 1 1 
0.05375 1.69551e-16 1.12104e-44 0.0025 1 1 2.5 0.005 221 5 1 1 
0.05625 1.57154e-46 1.12104e-44 0.0025 1 1 2.5 0.005 222 5 1 1 
0.05875 0 0 0.0025 1 1 2.5 0.005 223 5 1 1 
0.06125 0 0 0.0025 1 1 2.5 0.005 224 5 1 1 
0.06375 0 0 0.0025 1 1 2.5 0.005 225 5 1 1 
0.06625 0 0 0.0025 1 1 2.5 0.005 226 5 1 1 
0.06875 0 0 0.0025 1 1 2.5 0.005 227 5 1 1 
0.07125 0 0 0.0025 1 1 2.5 0.005 228 5 1 1 
0.07375 0 0 0.0025 1 1 2.5 0.005 229 5 1 1 
0.07625 0 0 0.0025 1 1 2.5 0.005 230 5 1 1 
0.07875 0 0 0.0025 1 1 2.5 0.005 231 5 1 1 
0.08125 0 0 0.0025 1 1 2.5 0.005 232 5 1 1 
0.08375 0 0 0.0025 1 1 2.5 0.005 233 5 1 1 
0.08625 0 0 0.0025 1 1 2.5 0.005 234 5 1 1 
0.08875 0 0 0.0025 1 1 2.5 0.005 235 5 1 1 
0.09125 -3.29927e-46 -1.12104e-44 0.0025 1 1 2.5 0.005 236 5 1 1 
0.09375 -3.35691e-17 -1.12104e-44 0.0025 1 1 2.5 0.005 237 5 1 1 
0.09625 -2.00225e-16 1.12104e-44 0.0025 1 1 2.5 0.005 238 5 1 1 
0.09875 -3.32868e-16 1.12104e-44 0.0025 1 1 2.5 0.005 239 5 1 1 
0.10125 4.00822e-16 5.68434e-14 0.0025 1 1 2.5 0.005 240 5 1 1 
0.10375 2.22213e-16 6.72623e-44 0.0025 1 1 2.5 0.005 241 5 1 1 
0.10625 3.10757e-15 5.68434e-14 0.0025 1 1 2.5 0.005 242 5 1 1 
0.10875 1.96461e-15 3.36312e-44 0.0025 1 1 2.5 0.005 243 5 1 1 
0.11125 1.41098e-15 -1.34525e-43 0.0025 1 1 2.5 0.005 244 5 1 1 
0.11375 -1.41003e-15 1.13687e-13 0.0025 1 1 2.5 0.005 245 5 1 1 
0.11625 4.09878e-17 -2.27374e-13 0.0025 1 1 2.5 0.005 246 5 1 1 
0.11875 -2.91305e-15 -2.27374e-13 0.0025 1 1 2.5 0.005 247 5 1 1 
0.12125 1.98756e-15 -3.41061e-13 0.0025 1 1 2.5 0.005 248 5 1 1 
0.12375 -1.36234e-15 -2.84217e-13 0.0025 1 1 2.5 0.005 249 4 1 1 
0.12625 1.36234e-15 2.84217e-13 0.0025 1 1 2.5 0.005 250 4 1 1 
0.12875 -1.98756e-15 3.41061e-13 0.0025 1 1 2.5 0.005 251 5 1 1 
0.13125 2.91305e-15 2.27374e-13 0.0025 1 1 2.5 0.005 252 5 1 1 
0.13375 -4.09878e-17 2.27374e-13 0.0025 1 1 2.5 0.005 253 5 1 1 
0.13625 1.41003e-15 -1.13687e-13 0.0025 1 1 2.5 0.005 254 5 1 1 
0.13875 -1.41098e-15 1.34525e-43 0.0025 1 1 2.5 0.005 255 5 1 1 
0.14125 -1.96461e-15 -3.36312e-44 0.0025 1 1 2.5 0.005 256 5 1 1 
0.14375 -3.10757e-15 -5.68434e-14 0.0025 1 1 2.5 0.005 257 5 1 1 
0.14625 -2.22213e-16 -6.72623e-44 0.0025 1 1 2.5 0.005 258 5 1 1 
0.14875 -4.00822e-16 -5.68434e-14 0.0025 1 1 2.5 0.005 259 5 1 1 
0.15125 3.32868e-16 -1.12104e-44 0.0025 1 1 2.5 0.005 260 5 1 1 
0.15375 2.00225e-16 -1.12104e-44 0.0025 1 1 2.5 0.005 261 5 1 1 
0.15625 3.35691e-17 1.12104e-44 0.0025 1 1 2.5 0.005 262 5 1 1 
0.15875 3.29927e-46 1.12104e-44 0.0025 1 1 2.5 0.005 263 5 1 1 
0.16125 0 0 0.0025 1 1 2.5 0.005 264 5 1 1 
0.16375 0 0 0.0025 1 1 2.5 0.005 265 5 1 1 
0.16625 0 0 0.0025 1 1 2.5 0.005 266 5 1 1 
0.16875 0 0 0.0025 1 1 2.5 0.005 267 5 1 1 
0.17125 0 0 0.0025 1 1 2.5 0.005 268 5 1 1 
0.17375 0 0 0.0025 1 1 2.5 0.005 269 5 1 1 
0.17625 0 0 0.0025 1 1 2.5 0.005 270 5 1 1 
0.17875 0 0 0.0025 1 1 2.5 0.005 271 5 1 1 
0.18125 0 0 0.0025 1 1 2.5 0.005 272 5 1 1 
0.18375 0 0 0.0025 1 1 2.5 0.005 273 5 1 1 
0.18625 0 0 0.0025 1 1 2.5 0.005 274 5 1 1 
0.18875 0 0 0.0025 1 1 2.5 0.005 275 5 1 1 
0.19125 0 0 0.0025 1 1 2.5 0.005 276 5 1 1 
0.19375 0 0 0.0025 1 1 2.5 0.005 277 5 1 1 
0.19625 0 0 0.0025 1 1 2.5 0.005 278 5 1 1 
0.19875 0 0 0.0025 1 1 2.5 0.005 279 5 1 1 
0.20125 -5.02378e-47 -1.12104e-44 0.0025 1 1 2.5 0.005 280 5 1 1 
0.20375 -6.78806e-17 -1.12104e-44 0.0025 1 1 2.5 0.005 281 5 1 1 
0.20625 -2.37053e-16 0 0.0025 1 1 2.5 0.005 282 5 1 1 
0.20875 -4.22465e-16 -5.68434e-14 0.0025 1 1 2.5 0.005 283 5 1 1 
0.21125 -6.06603e-16 0 0.0025 1 1 2.5 0.005 284 5 1 1 
0.21375 -8.23595e-16 5.68434e-14 0.0025 1 1 2.5 0.005 285 5 1 1 
0.21625 -1.0202e-15 -5.68434e-14 0.0025 1 1 2.5 0.005 286 5 1 1 
0.21875 -1.17934e-15 5.68434e-14 0.0025 1 1 2.5 0.005 287 5 1 1 
0.22125 7.84913e-16 1.13687e-13 0.0025 1 1 2.5 0.005 288 5 1 1 
0.22375 -1.78411e-16 1.13687e-13 0.0025 1 1 2.5 0.005 289 5 1 1 
0.22625 -8.67782e-16 -5.68434e-14 0.0025 1 1 2.5 0.005 290 5 1 1 
0.22875 -1.89654e-15 -5.68434e-14 0.0025 1 1 2.5 0.005 291 5 1 1 
0.23125 1.36796e-15 2.84217e-13 0.0025 1 1 2.5 0.005 292 5 1 1 
0.23375 -1.06977e-15 2.84217e-13 0.0025 1 1 2.5 0.005 293 5 1 1 
0.23625 4.55341e-16 -3.41061e-13 0.0025 1 1 2.5 0.005 294 5 1 1 
0.23875 -2.64695e-15 -3.41061e-13 0.0025 1 1 2.5 0.005 295 5 1 1 
0.24125 2.80555e-15 7.95808e-13 0.0025 1 1 2.5 0.005 296 5 1 1 
0.24375 -2.25156e-15 8.52651e-13 0.0025 1 1 2.5 0.005 297 5 1 1 
0.24625 2.80558e-15 -6.25278e-13 0.0025 1 1 2.5 0.005 298 5 1 1 
0.24875 -3.68096e-15 -6.25278e-13 0.0025 1 1 2.5 0.005 299 3 1 1 
0.25125 3.68096e-15 6.25278e-13 0.0025 1 1 2.5 0.005 300 3 1 1 
0.25375 -2.80558e-15 6.25278e-13 0.0025 1 1 2.5 0.005 301 5 1 1 
0.25625 2.25156e-15 -8.52651e-13 0.0025 1 1 2.5 0.005 302 5 1 1 
0.25875 -2.80555e-15 -7.95808e-13 0.0025 1 1 2.5 0.005 303 5 1 1 
0.26125 2.64695e-15 3.41061e-13 0.0025 1 1 2.5 0.005 304 5 1 1 
0.26375 -4.55341e-16 3.41061e-13 0.0025 1 1 2.5 0.005 305 5 1 1 
0.26625 1.06977e-15 -2.84217e-13 0.0025 1 1 2.5 0.005 306 5 1 1 
0.26875 -1.36796e-15 -2.84217e-13 0.0025 1 1 2.5 0.005 307 5 1 1 
0.27125 1.89654e-15 5.68434e-14 0.0025 1 1 2.5 0.005 308 5 1 1 
0.27375 8.67782e-16 5.68434e-14 0.0025 1 1 2.5 0.005 309 5 1 1 
0.27625 1.78411e-16 -1.13687e-13 0.0025 1 1 2.5 0.005 310 5 1 1 
0.27875 -7.84913e-16 -1.13687e-13 0.0025 1 1 2.5 0.005 311 5 1 1 
0.28125 1.17934e-15 -5.68434e-14 0.0025 1 1 2.5 0.005 312 5 1 1 
0.28375 1.0202e-15 5.68434e-14 0.0025 1 1 2.5 0.005 313 5 1 1 
0.28625 8.23595e-16 -5.68434e-14 0.0025 1 1 2.5 0.005 314 5 1 1 
0.28875 6.06603e-16 0 0.0025 1 1 2.5 0.005 315 5 1 1 
0.29125 4.22465e-16 5.68434e-14 0.0025 1 1 2.5 0.005 316 5 1 1 
0.29375 2.37053e-16 0 0.0025 1 1 2.5 0.005 317 5 1 1 
0.29625 6.78806e-17 1.12104e-44 0.0025 1 1 2.5 0.005 318 5 1 1 
0.29875 5.02378e-47 1.12104e-44 0.0025 1 1 2.5 0.005 319 5 1 1 
0.30125 0 0 0.0025 1 1 2.5 0.005 320 5 1 1 
0.30375 0 0 0.0025 1 1 2.5 0.005 321 5 1 1 
0.30625 0 0 0.0025 1 1 2.5 0.005 322 5 1 1 
0.30875 0 0 0.0025 1 1 2.5 0.005 323 5 1 1 
0.31125 0 0 0.0025 1 1 2.5 0.005 324 5 1 1 
0.31375 0 0 0.0025 1 1 2.5 0.005 325 5 1 1 
0.31625 0 0 0.0025 1 1 2.5 0.005 326 5 1 1 
0.31875 0 0 0.0025 1 1 2.5 0.005 327 5 1 1 
0.32125 0 0 0.0025 1 1 2.5 0.005 328 5 1 1 
0.32375 6.70309e-48 2.24208e-44 0.0025 1 1 2.5 0.005 329 5 1 1 
0.32625 3.39887e-17 1.13687e-13 0.0025 1 1 2.5 0.005 330 5 1 1 
