# Time [s]: 0.0701
# Columns: pos [m], vel [m/s], acc [m/s^2], mass [kg], dens [kg/m^3], pres [Pa], ene [J/kg], sml [m], id, neighbor, alpha, gradh, ...additional?
-0.669866 -2.98674 -6.98463 0.0025 0.0426711 0.0134839 0.790002 0.117175 0 5 1 1.04126 
-0.621587 -2.41654 -8.29054 0.0025 0.0741182 0.0261344 0.881524 0.0674598 1 5 1 0.978341 
-0.593748 -2.08812 -9.02295 0.0025 0.111045 0.0461527 1.03907 0.0450269 2 4 1 0.94883 
-0.574274 -1.85915 -9.52931 0.0025 0.148707 0.0694689 1.1679 0.0336232 3 4 1 0.952467 
-0.559264 -1.68317 -9.91367 0.0025 0.185291 0.0944902 1.27491 0.0269845 4 4 1 0.961002 
-0.546913 -1.53877 -10.2254 0.0025 0.220054 0.12019 1.36548 0.0227217 5 4 1 0.968817 
-0.536345 -1.41549 -10.4877 0.0025 0.253421 0.146443 1.44468 0.01973 6 4 1 0.974842 
-0.527067 -1.30748 -10.7272 0.0025 0.285744 0.17323 1.51563 0.0174982 7 4 1 0.979308 
-0.518773 -1.21082 -10.9891 0.0025 0.317284 0.200564 1.58035 0.0157588 8 4 1 0.98277 
-0.511257 -1.12308 -11.1748 0.0025 0.348177 0.228413 1.64009 0.0143605 9 4 1 0.985411 
-0.504376 -1.04284 -11.3956 0.0025 0.378518 0.256744 1.69575 0.0132094 10 4 1 0.987494 
-0.498021 -0.968417 -11.5865 0.0025 0.408415 0.285565 1.74803 0.0122424 11 4 1 0.989152 
-0.492112 -0.899191 -11.7857 0.0025 0.437927 0.314854 1.79744 0.0114174 12 4 1 0.990502 
-0.486587 -0.834221 -11.9678 0.0025 0.467108 0.344602 1.84437 0.0107042 13 4 1 0.99163 
-0.481395 -0.773042 -12.1218 0.0025 0.495967 0.374762 1.88908 0.0100813 14 4 1 0.992562 
-0.476496 -0.715247 -12.2922 0.0025 0.524532 0.405316 1.93183 0.0095323 15 4 1 0.993371 
-0.471855 -0.660507 -12.3995 0.0025 0.552798 0.436211 1.97277 0.00904489 16 4 1 0.994062 
-0.467444 -0.608409 -12.515 0.0025 0.580748 0.467389 2.01205 0.00860959 17 4 1 0.994648 
-0.463239 -0.558901 -12.6316 0.0025 0.608414 0.498848 2.04982 0.00821809 18 4 1 0.995167 
-0.459221 -0.511614 -12.6986 0.0025 0.635781 0.530535 2.08619 0.00786434 19 4 1 0.995613 
-0.455371 -0.466395 -12.789 0.0025 0.662851 0.56242 2.12125 0.00754317 20 4 1 0.996007 
-0.451674 -0.423094 -12.8448 0.0025 0.689636 0.594485 2.1551 0.0072502 21 4 1 0.996349 
-0.448117 -0.381538 -12.9214 0.0025 0.716144 0.626713 2.18784 0.00698184 22 4 1 0.996652 
-0.444689 -0.341647 -12.9731 0.0025 0.742388 0.659094 2.21954 0.00673503 23 4 1 0.996927 
-0.44138 -0.303194 -13.0023 0.0025 0.768347 0.691579 2.25025 0.00650747 24 4 1 0.997171 
-0.43818 -0.266159 -13.0362 0.0025 0.794022 0.724141 2.28001 0.00629705 25 4 1 0.997388 
-0.435081 -0.230547 -13.0713 0.0025 0.819424 0.756777 2.3089 0.00610184 26 4 1 0.997596 
-0.432076 -0.19615 -13.0185 0.0025 0.844506 0.7894 2.33689 0.00592062 27 4 1 0.997791 
-0.429159 -0.163138 -12.9263 0.0025 0.869206 0.821898 2.36397 0.00575238 28 4 1 0.997914 
-0.426323 -0.131133 -13.2362 0.0025 0.893762 0.854578 2.39045 0.00559433 29 4 1 0.998012 
-0.423563 -0.0992005 -13.6499 0.0025 0.918375 0.887761 2.41661 0.0054444 30 4 1 0.998431 
-0.420877 -0.0694806 -11.5632 0.0025 0.94132 0.919023 2.44061 0.00531169 31 4 1 0.998995 
-0.418251 -0.0475814 -7.99491 0.0025 0.960288 0.944838 2.45995 0.00520677 32 4 1 0.998643 
-0.41567 -0.0259985 -13.4549 0.0025 0.980695 0.972867 2.48062 0.00509842 33 4 1 0.997387 
-0.413151 0.0126756 -22.0735 0.0025 1.0102 1.0146 2.51064 0.00494952 34 4 1 0.998623 
-0.410719 0.0491109 -10.6771 0.0025 1.03686 1.05261 2.53712 0.00482226 35 4 1 1.00005 
-0.408329 0.0557185 0.98835 0.0025 1.04536 1.0644 2.54514 0.00478305 36 3 1 1 
-0.405936 0.0506745 3.18058 0.0025 1.04144 1.05864 2.54118 0.00480106 37 4 1 0.999981 
-0.403528 0.0425557 4.31371 0.0025 1.03432 1.04846 2.53414 0.00483412 38 4 1 0.999872 
-0.401101 0.0332335 4.66488 0.0025 1.02642 1.03722 2.52631 0.0048713 39 4 1 0.99983 
-0.398656 0.0241013 4.36337 0.0025 1.01893 1.0266 2.51886 0.00490711 40 4 1 0.999837 
-0.396194 0.0162349 3.60018 0.0025 1.01263 1.0177 2.51259 0.00493762 41 4 1 0.999879 
-0.393719 0.0101881 2.66152 0.0025 1.00787 1.01101 2.50784 0.00496094 42 4 1 0.999928 
-0.391233 0.00598312 1.78903 0.0025 1.0046 1.00642 2.50458 0.0049771 43 4 1 0.999965 
-0.388742 0.00330315 1.10758 0.0025 1.00253 1.00352 2.50251 0.00498737 44 4 1 0.999986 
-0.386246 0.00172041 0.637895 0.0025 1.00132 1.00183 2.5013 0.00499343 45 4 1 0.999995 
-0.383748 0.000847161 0.344068 0.0025 1.00065 1.0009 2.50064 0.00499677 46 4 1 0.999998 
-0.381249 0.000394734 0.174475 0.0025 1.0003 1.00042 2.5003 0.00499849 47 4 1 1 
-0.37875 0.00017402 0.0833284 0.0025 1.00013 1.00018 2.50013 0.00499934 48 4 1 1 
-0.37625 7.2526e-05 0.0374985 0.0025 1.00006 1.00008 2.50005 0.00499972 49 4 1 1 
-0.37375 2.85351e-05 0.0158922 0.0025 1.00002 1.00003 2.50002 0.00499989 50 4 1 1 
-0.37125 1.05782e-05 0.00633571 0.0025 1.00001 1.00001 2.50001 0.00499996 51 4 1 1 
-0.36875 3.68531e-06 0.00237167 0.0025 1 1 2.5 0.00499999 52 4 1 1 
-0.36625 1.20252e-06 0.000831465 0.0025 1 1 2.5 0.005 53 4 1 1 
-0.36375 3.65847e-07 0.000272038 0.0025 1 1 2.5 0.005 54 4 1 1 
-0.36125 1.03134e-07 8.2658e-05 0.0025 1 1 2.5 0.005 55 4 1 1 
-0.35875 2.67041e-08 2.31635e-05 0.0025 1 1 2.5 0.005 56 4 1 1 
-0.35625 6.26823e-09 5.92635e-06 0.0025 1 1 2.5 0.005 57 4 1 1 
-0.35375 1.30626e-09 1.36274e-06 0.0025 1 1 2.5 0.005 58 4 1 1 
-0.35125 2.32884e-10 2.74237e-07 0.0025 1 1 2.5 0.005 59 4 1 1 
-0.34875 3.2878e-11 4.58861e-08 0.0025 1 1 2.5 0.005 60 4 1 1 
-0.34625 2.92369e-12 5.60908e-09 0.0025 1 1 2.5 0.005 61 4 1 1 
-0.34375 -1.78846e-14 2.13447e-10 0.0025 1 1 2.5 0.005 62 4 1 1 
-0.34125 -3.75367e-15 -4.62137e-11 0.0025 1 1 2.5 0.005 63 5 1 1 
-0.33875 6.10459e-15 2.16005e-12 0.0025 1 1 2.5 0.005 64 4 1 1 
-0.33625 1.66209e-15 1.13687e-12 0.0025 1 1 2.5 0.005 65 5 1 1 
-0.33375 2.88301e-16 3.97904e-13 0.0025 1 1 2.5 0.005 66 5 1 1 
-0.33125 1.69571e-17 5.68434e-14 0.0025 1 1 2.5 0.005 67 5 1 1 
-0.32875 3.34419e-48 1.12104e-44 0.0025 1 1 2.5 0.005 68 5 1 1 
-0.32625 0 0 0.0025 1 1 2.5 0.005 69 5 1 1 
-0.32375 0 0 0.0025 1 1 2.5 0.005 70 5 1 1 
-0.32125 0 0 0.0025 1 1 2.5 0.005 71 5 1 1 
-0.31875 0 0 0.0025 1 1 2.5 0.005 72 5 1 1 
-0.31625 0 0 0.0025 1 1 2.5 0.005 73 5 1 1 
-0.31375 0 0 0.0025 1 1 2.5 0.005 74 5 1 1 
-0.31125 0 0 0.0025 1 1 2.5 0.005 75 5 1 1 
-0.30875 0 0 0.0025 1 1 2.5 0.005 76 5 1 1 
-0.30625 0 0 0.0025 1 1 2.5 0.005 77 5 1 1 
-0.30375 0 0 0.0025 1 1 2.5 0.005 78 5 1 1 
-0.30125 0 0 0.0025 1 1 2.5 0.005 79 5 1 1 
-0.29875 0 0 0.0025 1 1 2.5 0.005 80 5 1 1 
-0.29625 0 0 0.0025 1 1 2.5 0.005 81 5 1 1 
-0.29375 0 0 0.0025 1 1 2.5 0.005 82 5 1 1 
-0.29125 0 0 0.0025 1 1 2.5 0.005 83 5 1 1 
-0.28875 0 0 0.0025 1 1 2.5 0.005 84 5 1 1 
-0.28625 0 0 0.0025 1 1 2.5 0.005 85 5 1 1 
-0.28375 0 0 0.0025 1 1 2.5 0.005 86 5 1 1 
-0.28125 0 0 0.0025 1 1 2.5 0.005 87 5 1 1 
-0.27875 0 0 0.0025 1 1 2.5 0.005 88 5 1 1 
-0.27625 0 0 0.0025 1 1 2.5 0.005 89 5 1 1 
-0.27375 0 0 0.0025 1 1 2.5 0.005 90 5 1 1 
-0.27125 0 0 0.0025 1 1 2.5 0.005 91 5 1 1 
-0.26875 0 0 0.0025 1 1 2.5 0.005 92 5 1 1 
-0.26625 0 0 0.0025 1 1 2.5 0.005 93 5 1 1 
-0.26375 0 0 0.0025 1 1 2.5 0.005 94 5 1 1 
-0.26125 0 0 0.0025 1 1 2.5 0.005 95 5 1 1 
-0.25875 0 0 0.0025 1 1 2.5 0.005 96 5 1 1 
-0.25625 0 0 0.0025 1 1 2.5 0.005 97 5 1 1 
-0.25375 0 0 0.0025 1 1 2.5 0.005 98 5 1 1 
-0.25125 0 0 0.0025 1 1 2.5 0.005 99 5 1 1 
-0.24875 0 0 0.0025 1 1 2.5 0.005 100 5 1 1 
-0.24625 0 0 0.0025 1 1 2.5 0.005 101 5 1 1 
-0.24375 0 0 0.0025 1 1 2.5 0.005 102 5 1 1 
-0.24125 0 0 0.0025 1 1 2.5 0.005 103 5 1 1 
-0.23875 0 0 0.0025 1 1 2.5 0.005 104 5 1 1 
-0.23625 0 0 0.0025 1 1 2.5 0.005 105 5 1 1 
-0.23375 0 0 0.0025 1 1 2.5 0.005 106 5 1 1 
-0.23125 0 0 0.0025 1 1 2.5 0.005 107 5 1 1 
-0.22875 0 0 0.0025 1 1 2.5 0.005 108 5 1 1 
-0.22625 0 0 0.0025 1 1 2.5 0.005 109 5 1 1 
-0.22375 0 0 0.0025 1 1 2.5 0.005 110 5 1 1 
-0.22125 0 0 0.0025 1 1 2.5 0.005 111 5 1 1 
-0.21875 0 0 0.0025 1 1 2.5 0.005 112 5 1 1 
-0.21625 0 0 0.0025 1 1 2.5 0.005 113 5 1 1 
-0.21375 0 0 0.0025 1 1 2.5 0.005 114 5 1 1 
-0.21125 0 0 0.0025 1 1 2.5 0.005 115 5 1 1 
-0.20875 0 0 0.0025 1 1 2.5 0.005 116 5 1 1 
-0.20625 0 0 0.0025 1 1 2.5 0.005 117 5 1 1 
-0.20375 0 0 0.0025 1 1 2.5 0.005 118 5 1 1 
-0.20125 0 0 0.0025 1 1 2.5 0.005 119 5 1 1 
-0.19875 0 0 0.0025 1 1 2.5 0.005 120 5 1 1 
-0.19625 0 0 0.0025 1 1 2.5 0.005 121 5 1 1 
-0.19375 0 0 0.0025 1 1 2.5 0.005 122 5 1 1 
-0.19125 0 0 0.0025 1 1 2.5 0.005 123 5 1 1 
-0.18875 0 0 0.0025 1 1 2.5 0.005 124 5 1 1 
-0.18625 0 0 0.0025 1 1 2.5 0.005 125 5 1 1 
-0.18375 0 0 0.0025 1 1 2.5 0.005 126 5 1 1 
-0.18125 0 0 0.0025 1 1 2.5 0.005 127 5 1 1 
-0.17875 0 0 0.0025 1 1 2.5 0.005 128 5 1 1 
-0.17625 0 0 0.0025 1 1 2.5 0.005 129 5 1 1 
-0.17375 0 0 0.0025 1 1 2.5 0.005 130 5 1 1 
-0.17125 0 0 0.0025 1 1 2.5 0.005 131 5 1 1 
-0.16875 0 0 0.0025 1 1 2.5 0.005 132 5 1 1 
-0.16625 0 0 0.0025 1 1 2.5 0.005 133 5 1 1 
-0.16375 0 0 0.0025 1 1 2.5 0.005 134 5 1 1 
-0.16125 0 0 0.0025 1 1 2.5 0.005 135 5 1 1 
-0.15875 0 0 0.0025 1 1 2.5 0.005 136 5 1 1 
-0.15625 0 0 0.0025 1 1 2.5 0.005 137 5 1 1 
-0.15375 0 0 0.0025 1 1 2.5 0.005 138 5 1 1 
-0.15125 0 0 0.0025 1 1 2.5 0.005 139 5 1 1 
-0.14875 0 0 0.0025 1 1 2.5 0.005 140 5 1 1 
-0.14625 0 0 0.0025 1 1 2.5 0.005 141 5 1 1 
-0.14375 0 0 0.0025 1 1 2.5 0.005 142 5 1 1 
-0.14125 0 0 0.0025 1 1 2.5 0.005 143 5 1 1 
-0.13875 0 0 0.0025 1 1 2.5 0.005 144 5 1 1 
-0.13625 0 0 0.0025 1 1 2.5 0.005 145 5 1 1 
-0.13375 0 0 0.0025 1 1 2.5 0.005 146 5 1 1 
-0.13125 0 0 0.0025 1 1 2.5 0.005 147 5 1 1 
-0.12875 0 0 0.0025 1 1 2.5 0.005 148 5 1 1 
-0.12625 0 0 0.0025 1 1 2.5 0.005 149 5 1 1 
-0.12375 0 0 0.0025 1 1 2.5 0.005 150 5 1 1 
-0.12125 0 0 0.0025 1 1 2.5 0.005 151 5 1 1 
-0.11875 0 0 0.0025 1 1 2.5 0.005 152 5 1 1 
-0.11625 0 0 0.0025 1 1 2.5 0.005 153 5 1 1 
-0.11375 0 0 0.0025 1 1 2.5 0.005 154 5 1 1 
-0.11125 0 0 0.0025 1 1 2.5 0.005 155 5 1 1 
-0.10875 0 0 0.0025 1 1 2.5 0.005 156 5 1 1 
-0.10625 0 0 0.0025 1 1 2.5 0.005 157 5 1 1 
-0.10375 0 0 0.0025 1 1 2.5 0.005 158 5 1 1 
-0.10125 0 0 0.0025 1 1 2.5 0.005 159 5 1 1 
-0.09875 0 0 0.0025 1 1 2.5 0.005 160 5 1 1 
-0.09625 0 0 0.0025 1 1 2.5 0.005 161 5 1 1 
-0.09375 0 0 0.0025 1 1 2.5 0.005 162 5 1 1 
-0.09125 0 0 0.0025 1 1 2.5 0.005 163 5 1 1 
-0.08875 0 0 0.0025 1 1 2.5 0.005 164 5 1 1 
-0.08625 0 0 0.0025 1 1 2.5 0.005 165 5 1 1 
-0.08375 0 0 0.0025 1 1 2.5 0.005 166 5 1 1 
-0.08125 0 0 0.0025 1 1 2.5 0.005 167 5 1 1 
-0.07875 0 0 0.0025 1 1 2.5 0.005 168 5 1 1 
-0.07625 0 0 0.0025 1 1 2.5 0.005 169 5 1 1 
-0.07375 0 0 0.0025 1 1 2.5 0.005 170 5 1 1 
-0.07125 0 0 0.0025 1 1 2.5 0.005 171 5 1 1 
-0.06875 0 0 0.0025 1 1 2.5 0.005 172 5 1 1 
-0.06625 0 0 0.0025 1 1 2.5 0.005 173 5 1 1 
-0.06375 0 0 0.0025 1 1 2.5 0.005 174 5 1 1 
-0.06125 0 0 0.0025 1 1 2.5 0.005 175 5 1 1 
-0.05875 -7.68301e-47 -1.12104e-44 0.0025 1 1 2.5 0.005 176 5 1 1 
-0.05625 -1.01631e-16 -1.12104e-44 0.0025 1 1 2.5 0.005 177 5 1 1 
-0.05375 -2.53139e-16 -5.68434e-14 0.0025 1 1 2.5 0.005 178 5 1 1 
-0.05125 -4.20076e-16 5.68434e-14 0.0025 1 1 2.5 0.005 179 5 1 1 
-0.04875 -6.53691e-16 -5.68434e-14 0.0025 1 1 2.5 0.005 180 5 1 1 
-0.04625 -8.67438e-16 -2.24208e-44 0.0025 1 1 2.5 0.005 181 5 1 1 
-0.04375 -1.19703e-15 -1.13687e-13 0.0025 1 1 2.5 0.005 182 5 1 1 
-0.04125 -1.72123e-15 1.13687e-13 0.0025 1 1 2.5 0.005 183 5 1 1 
-0.03875 -2.222e-15 -5.68434e-14 0.0025 1 1 2.5 0.005 184 5 1 1 
-0.03625 -2.46058e-15 -5.68434e-14 0.0025 1 1 2.5 0.005 185 5 1 1 
-0.03375 -4.17864e-15 5.68434e-14 0.0025 1 1 2.5 0.005 186 4 1 1 
-0.03125 -4.89249e-16 6.31089e-28 0.0025 1 1 2.5 0.005 187 3 1 1 
-0.02875 -7.10611e-16 -8.96831e-44 0.0025 1 1 2.5 0.005 188 3 1 1 
-0.02625 -1.18985e-15 -5.68434e-14 0.0025 1 1 2.5 0.005 189 3 1 1 
-0.02375 1.08612e-15 5.68434e-14 0.0025 1 1 2.5 0.005 190 4 1 1 
-0.02125 1.31417e-16 -1.13687e-13 0.0025 1 1 2.5 0.005 191 5 1 1 
-0.01875 2.50592e-15 5.68434e-14 0.0025 1 1 2.5 0.005 192 5 1 1 
-0.01625 1.00718e-15 -5.68434e-14 0.0025 1 1 2.5 0.005 193 4 1 1 
-0.01375 -2.45456e-16 1.13687e-13 0.0025 1 1 2.5 0.005 194 4 1 1 
-0.01125 5.58548e-16 -1.7053e-13 0.0025 1 1 2.5 0.005 195 3 1 1 
-0.00875 -5.73329e-16 -1.7053e-13 0.0025 1 1 2.5 0.005 196 3 1 1 
-0.00625 7.34359e-16 2.27374e-13 0.0025 1 1 2.5 0.005 197 4 1 1 
-0.00375 -8.4385e-17 -5.68434e-14 0.0025 1 1 2.5 0.005 198 3 1 1 
-0.00125 -2.21666e-16 -1.7053e-13 0.0025 1 1 2.5 0.005 199 3 1 1 
0.00125 -2.7108e-16 3.41061e-13 0.0025 1 1 2.5 0.005 200 3 1 1 
0.00375 3.83859e-16 1.7053e-13 0.0025 1 1 2.5 0.005 201 4 1 1 
0.00625 3.65324e-16 -3.97904e-13 0.0025 1 1 2.5 0.005 202 3 1 1 
0.00875 -2.84322e-17 1.13687e-13 0.0025 1 1 2.5 0.005 203 3 1 1 
0.01125 -2.47543e-16 5.68434e-14 0.0025 1 1 2.5 0.005 204 3 1 1 
0.01375 -1.04941e-15 -5.68434e-14 0.0025 1 1 2.5 0.005 205 3 1 1 
0.01625 -2.25203e-15 -1.13687e-13 0.0025 1 1 2.5 0.005 206 3 1 1 
0.01875 1.33998e-15 2.27374e-13 0.0025 1 1 2.5 0.005 207 4 1 1 
0.02125 2.8525e-16 1.13687e-13 0.0025 1 1 2.5 0.005 208 5 1 1 
0.02375 1.91142e-15 2.27374e-13 0.0025 1 1 2.5 0.005 209 5 1 1 
0.02625 1.39046e-15 1.13687e-13 0.0025 1 1 2.5 0.005 210 4 1 1 
0.02875 9.91169e-16 1.13687e-13 0.0025 1 1 2.5 0.005 211 3 1 1 
0.03125 1.18079e-15 -2.27374e-13 0.0025 1 1 2.5 0.005 212 4 1 1 
0.03375 6.79702e-16 -2.27374e-13 0.0025 1 1 2.5 0.005 213 5 1 1 
0.03625 1.79565e-15 -3.9443e-29 0.0025 1 1 2.5 0.005 214 5 1 1 
0.03875 1.60083e-15 -5.68434e-14 0.0025 1 1 2.5 0.005 215 5 1 1 
0.04125 1.12772e-15 2.24208e-44 0.0025 1 1 2.5 0.005 216 5 1 1 
0.04375 9.0107e-16 2.24208e-44 0.0025 1 1 2.5 0.005 217 5 1 1 
0.04625 6.53222e-16 5.68434e-14 0.0025 1 1 2.5 0.005 218 5 1 1 
0.04875 4.36997e-16 0 0.0025 1 1 2.5 0.005 219 5 1 1 
0.05125 2.69897e-16 0 0.0025 1 1 2.5 0.005 220 5 1 1 
0.05375 1.01607e-16 1.12104e-44 0.0025 1 1 2.5 0.005 221 5 1 1 
0.05625 9.01697e-47 1.12104e-44 0.0025 1 1 2.5 0.005 222 5 1 1 
0.05875 0 0 0.0025 1 1 2.5 0.005 223 5 1 1 
0.06125 0 0 0.0025 1 1 2.5 0.005 224 5 1 1 
0.06375 0 0 0.0025 1 1 2.5 0.005 225 5 1 1 
0.06625 0 0 0.0025 1 1 2.5 0.005 226 5 1 1 
0.06875 0 0 0.0025 1 1 2.5 0.005 227 5 1 1 
0.07125 0 0 0.0025 1 1 2.5 0.005 228 5 1 1 
0.07375 0 0 0.0025 1 1 2.5 0.005 229 5 1 1 
0.07625 0 0 0.0025 1 1 2.5 0.005 230 5 1 1 
0.07875 0 0 0.0025 1 1 2.5 0.005 231 5 1 1 
0.08125 0 0 0.0025 1 1 2.5 0.005 232 5 1 1 
0.08375 0 0 0.0025 1 1 2.5 0.005 233 5 1 1 
0.08625 0 0 0.0025 1 1 2.5 0.005 234 5 1 1 
0.08875 0 0 0.0025 1 1 2.5 0.005 235 5 1 1 
0.09125 -2.62943e-46 -1.12104e-44 0.0025 1 1 2.5 0.005 236 5 1 1 
0.09375 -3.35691e-17 -1.12104e-44 0.0025 1 1 2.5 0.005 237 5 1 1 
0.09625 -2.00225e-16 1.12104e-44 0.0025 1 1 2.5 0.005 238 5 1 1 
0.09875 -3.32868e-16 1.12104e-44 0.0025 1 1 2.5 0.005 239 5 1 1 
0.10125 9.51636e-17 5.68434e-14 0.0025 1 1 2.5 0.005 240 5 1 1 
0.10375 -3.24826e-17 5.68434e-14 0.0025 1 1 2.5 0.005 241 5 1 1 
0.10625 2.85286e-15 -6.72623e-44 0.0025 1 1 2.5 0.005 242 5 1 1 
0.10875 1.8627e-15 1.13687e-13 0.0025 1 1 2.5 0.005 243 5 1 1 
0.11125 1.27516e-15 -6.72623e-44 0.0025 1 1 2.5 0.005 244 5 1 1 
0.11375 -1.71585e-15 3.58732e-43 0.0025 1 1 2.5 0.005 245 5 1 1 
0.11625 1.26382e-15 -2.27374e-13 0.0025 1 1 2.5 0.005 246 5 1 1 
0.11875 -1.57146e-15 -1.7053e-13 0.0025 1 1 2.5 0.005 247 5 1 1 
0.12125 4.21225e-15 -2.84217e-13 0.0025 1 1 2.5 0.005 248 5 1 1 
0.12375 3.52925e-16 -2.27374e-13 0.0025 1 1 2.5 0.005 249 4 1 1 
0.12625 -3.52925e-16 2.27374e-13 0.0025 1 1 2.5 0.005 250 4 1 1 
0.12875 -4.21225e-15 2.84217e-13 0.0025 1 1 2.5 0.005 251 5 1 1 
0.13125 1.57146e-15 1.7053e-13 0.0025 1 1 2.5 0.005 252 5 1 1 
0.13375 -1.26382e-15 2.27374e-13 0.0025 1 1 2.5 0.005 253 5 1 1 
0.13625 1.71585e-15 -3.58732e-43 0.0025 1 1 2.5 0.005 254 5 1 1 
0.13875 -1.27516e-15 6.72623e-44 0.0025 1 1 2.5 0.005 255 5 1 1 
0.14125 -1.8627e-15 -1.13687e-13 0.0025 1 1 2.5 0.005 256 5 1 1 
0.14375 -2.85286e-15 6.72623e-44 0.0025 1 1 2.5 0.005 257 5 1 1 
0.14625 3.24826e-17 -5.68434e-14 0.0025 1 1 2.5 0.005 258 5 1 1 
0.14875 -9.51636e-17 -5.68434e-14 0.0025 1 1 2.5 0.005 259 5 1 1 
0.15125 3.32868e-16 -1.12104e-44 0.0025 1 1 2.5 0.005 260 5 1 1 
0.15375 2.00225e-16 -1.12104e-44 0.0025 1 1 2.5 0.005 261 5 1 1 
0.15625 3.35691e-17 1.12104e-44 0.0025 1 1 2.5 0.005 262 5 1 1 
0.15875 2.62943e-46 1.12104e-44 0.0025 1 1 2.5 0.005 263 5 1 1 
0.16125 0 0 0.0025 1 1 2.5 0.005 264 5 1 1 
0.16375 0 0 0.0025 1 1 2.5 0.005 265 5 1 1 
0.16625 0 0 0.0025 1 1 2.5 0.005 266 5 1 1 
0.16875 0 0 0.0025 1 1 2.5 0.005 267 5 1 1 
0.17125 0 0 0.0025 1 1 2.5 0.005 268 5 1 1 
0.17375 0 0 0.0025 1 1 2.5 0.005 269 5 1 1 
0.17625 0 0 0.0025 1 1 2.5 0.005 270 5 1 1 
0.17875 0 0 0.0025 1 1 2.5 0.005 271 5 1 1 
0.18125 0 0 0.0025 1 1 2.5 0.005 272 5 1 1 
0.18375 0 0 0.0025 1 1 2.5 0.005 273 5 1 1 
0.18625 0 0 0.0025 1 1 2.5 0.005 274 5 1 1 
0.18875 0 0 0.0025 1 1 2.5 0.005 275 5 1 1 
0.19125 0 0 0.0025 1 1 2.5 0.005 276 5 1 1 
0.19375 0 0 0.0025 1 1 2.5 0.005 277 5 1 1 
0.19625 0 0 0.0025 1 1 2.5 0.005 278 5 1 1 
0.19875 0 0 0.0025 1 1 2.5 0.005 279 5 1 1 
0.20125 0 0 0.0025 1 1 2.5 0.005 280 5 1 1 
0.20375 -1.23504e-46 -1.12104e-44 0.0025 1 1 2.5 0.005 281 5 1 1 
0.20625 -1.86081e-16 -5.68434e-14 0.0025 1 1 2.5 0.005 282 5 1 1 
0.20875 -3.54511e-16 5.68434e-14 0.0025 1 1 2.5 0.005 283 5 1 1 
0.21125 -5.89634e-16 -5.68434e-14 0.0025 1 1 2.5 0.005 284 5 1 1 
0.21375 -8.06618e-16 0 0.0025 1 1 2.5 0.005 285 5 1 1 
0.21625 -1.10513e-15 1.12104e-44 0.0025 1 1 2.5 0.005 286 5 1 1 
0.21875 -1.31516e-15 5.68434e-14 0.0025 1 1 2.5 0.005 287 5 1 1 
0.22125 -2.00057e-16 2.27374e-13 0.0025 1 1 2.5 0.005 288 5 1 1 
0.22375 -1.12937e-15 1.13687e-13 0.0025 1 1 2.5 0.005 289 5 1 1 
0.22625 1.34037e-16 -2.27374e-13 0.0025 1 1 2.5 0.005 290 5 1 1 
0.22875 -1.06441e-15 -1.13687e-13 0.0025 1 1 2.5 0.005 291 5 1 1 
0.23125 -7.54732e-16 3.41061e-13 0.0025 1 1 2.5 0.005 292 5 1 1 
0.23375 -3.07372e-15 3.97904e-13 0.0025 1 1 2.5 0.005 293 5 1 1 
0.23625 2.68002e-15 -3.97904e-13 0.0025 1 1 2.5 0.005 294 5 1 1 
0.23875 -6.42881e-16 -1.13687e-13 0.0025 1 1 2.5 0.005 295 5 1 1 
0.24125 -1.27072e-15 3.41061e-13 0.0025 1 1 2.5 0.005 296 5 1 1 
0.24375 -7.02375e-15 3.41061e-13 0.0025 1 1 2.5 0.005 297 5 1 1 
0.24625 5.77786e-15 1.13687e-13 0.0025 1 1 2.5 0.005 298 5 1 1 
0.24875 -1.0313e-15 5.68434e-14 0.0025 1 1 2.5 0.005 299 3 1 1 
0.25125 1.0313e-15 -5.68434e-14 0.0025 1 1 2.5 0.005 300 3 1 1 
0.25375 -5.77786e-15 -1.13687e-13 0.0025 1 1 2.5 0.005 301 5 1 1 
0.25625 7.02375e-15 -3.41061e-13 0.0025 1 1 2.5 0.005 302 5 1 1 
0.25875 1.27072e-15 -3.41061e-13 0.0025 1 1 2.5 0.005 303 5 1 1 
0.26125 6.42881e-16 1.13687e-13 0.0025 1 1 2.5 0.005 304 5 1 1 
0.26375 -2.68002e-15 3.97904e-13 0.0025 1 1 2.5 0.005 305 5 1 1 
0.26625 3.07372e-15 -3.97904e-13 0.0025 1 1 2.5 0.005 306 5 1 1 
0.26875 7.54732e-16 -3.41061e-13 0.0025 1 1 2.5 0.005 307 5 1 1 
0.27125 1.06441e-15 1.13687e-13 0.0025 1 1 2.5 0.005 308 5 1 1 
0.27375 -1.34037e-16 2.27374e-13 0.0025 1 1 2.5 0.005 309 5 1 1 
0.27625 1.12937e-15 -1.13687e-13 0.0025 1 1 2.5 0.005 310 5 1 1 
0.27875 2.00057e-16 -2.27374e-13 0.0025 1 1 2.5 0.005 311 5 1 1 
0.28125 1.31516e-15 -5.68434e-14 0.0025 1 1 2.5 0.005 312 5 1 1 
0.28375 1.10513e-15 -1.12104e-44 0.0025 1 1 2.5 0.005 313 5 1 1 
0.28625 8.06618e-16 0 0.0025 1 1 2.5 0.005 314 5 1 1 
0.28875 5.89634e-16 5.68434e-14 0.0025 1 1 2.5 0.005 315 5 1 1 
0.29125 3.54511e-16 -5.68434e-14 0.0025 1 1 2.5 0.005 316 5 1 1 
0.29375 1.86081e-16 5.68434e-14 0.0025 1 1 2.5 0.005 317 5 1 1 
0.29625 1.23504e-46 1.12104e-44 0.0025 1 1 2.5 0.005 318 5 1 1 
0.29875 0 0 0.0025 1 1 2.5 0.005 319 5 1 1 
0.30125 0 0 0.0025 1 1 2.5 0.005 320 5 1 1 
0.30375 0 0 0.0025 1 1 2.5 0.005 321 5 1 1 
0.30625 0 0 0.0025 1 1 2.5 0.005 322 5 1 1 
0.30875 0 0 0.0025 1 1 2.5 0.005 323 5 1 1 
0.31125 0 0 0.0025 1 1 2.5 0.005 324 5 1 1 
0.31375 0 0 0.0025 1 1 2.5 0.005 325 5 1 1 
0.31625 0 0 0.0025 1 1 2.5 0.005 326 5 1 1 
0.31875 0 0 0.0025 1 1 2.5 0.005 327 5 1 1 
0.32125 0 0 0.0025 1 1 2.5 0.005 328 5 1 1 
0.32375 0 0 0.0025 1 1 2.5 0.005 329 5 1 1 
0.32625 0 0 0.0025 1 1 2.5 0.005 330 5 1 1 
0.32875 -3.34419e-48 -1.12104e-44 0.0025 1 1 2.5 0.005 331 5 1 1 
0.33125 -1.69571e-17 -5.68434e-14 0.0025 1 1 2.5 0.005 332 5 1 1 
0.33375 -2.54387e-16 -2.84217e-13 0.0025 1 1 2.5 0.005 333 5 1 1 
