# Time [s]: 0.088062
# Columns: pos [m], vel [m/s], acc [m/s^2], mass [kg], dens [kg/m^3], pres [Pa], ene [J/kg], sml [m], id, neighbor, alpha, gradh, ...additional?
-0.724542 -3.09641 -5.35886 0.0025 0.0353207 0.0103483 0.732464 0.14156 0 5 1 1.041 
-0.666214 -2.54675 -6.36403 0.0025 0.0613586 0.0200607 0.817362 0.0814881 1 5 1 0.978137 
-0.632585 -2.22999 -6.94131 0.0025 0.0919609 0.0354443 0.963581 0.0543709 2 4 1 0.948828 
-0.609073 -2.00906 -7.33754 0.0025 0.123206 0.0533846 1.08325 0.0405823 3 4 1 0.952379 
-0.590959 -1.83919 -7.64053 0.0025 0.153583 0.0726559 1.1827 0.0325558 4 4 1 0.960897 
-0.576062 -1.69977 -7.88682 0.0025 0.182467 0.0924676 1.26692 0.0274022 5 4 1 0.968716 
-0.563318 -1.58071 -8.09571 0.0025 0.210206 0.112718 1.34058 0.0237862 6 4 1 0.974765 
-0.552135 -1.47637 -8.28086 0.0025 0.237078 0.133385 1.40656 0.0210901 7 4 1 0.979341 
-0.542138 -1.38322 -8.43821 0.0025 0.263247 0.154432 1.46662 0.0189936 8 4 1 0.982814 
-0.53308 -1.29898 -8.58826 0.0025 0.288833 0.175836 1.52197 0.0173111 9 4 1 0.985444 
-0.524783 -1.22169 -8.76368 0.0025 0.313965 0.197613 1.57354 0.0159254 10 4 1 0.987563 
-0.517122 -1.15023 -8.87796 0.0025 0.338694 0.219733 1.62193 0.0147626 11 4 1 0.989239 
-0.509996 -1.08385 -9.01777 0.0025 0.363055 0.242165 1.66757 0.013772 12 4 1 0.990596 
-0.50333 -1.02164 -9.14218 0.0025 0.387111 0.264915 1.71086 0.0129162 13 4 1 0.991712 
-0.497064 -0.963045 -9.26259 0.0025 0.410887 0.287963 1.7521 0.0121688 14 4 1 0.992632 
-0.491149 -0.907747 -9.38783 0.0025 0.434423 0.31131 1.79153 0.0115095 15 4 1 0.993415 
-0.485545 -0.85515 -9.49037 0.0025 0.457734 0.334938 1.82935 0.0109234 16 4 1 0.994071 
-0.480217 -0.805163 -9.61265 0.0025 0.480842 0.358841 1.86571 0.0103984 17 4 1 0.994643 
-0.475139 -0.757421 -9.70165 0.0025 0.503757 0.383002 1.90075 0.00992542 18 4 1 0.995141 
-0.470286 -0.711782 -9.79192 0.0025 0.526471 0.407389 1.93455 0.00949721 19 4 1 0.995573 
-0.465637 -0.668001 -9.87765 0.0025 0.548996 0.431993 1.96722 0.00910754 20 4 1 0.99595 
-0.461174 -0.626062 -9.9608 0.0025 0.571341 0.456803 1.99884 0.00875134 21 4 1 0.996293 
-0.456882 -0.585676 -10.0092 0.0025 0.59349 0.48178 2.02946 0.00842474 22 4 1 0.996588 
-0.452746 -0.54682 -10.0897 0.0025 0.615452 0.506919 2.05915 0.00812411 23 4 1 0.996853 
-0.448755 -0.509379 -10.1412 0.0025 0.637243 0.532218 2.08799 0.00784631 24 4 1 0.99709 
-0.444897 -0.473218 -10.199 0.0025 0.658854 0.557653 2.11602 0.00758894 25 4 1 0.997305 
-0.441163 -0.438296 -10.2383 0.0025 0.680287 0.583211 2.14327 0.00734984 26 4 1 0.997496 
-0.437545 -0.404462 -10.2884 0.0025 0.701547 0.608881 2.1698 0.00712711 27 4 1 0.997666 
-0.434034 -0.371746 -10.3381 0.0025 0.722649 0.634671 2.19566 0.00691899 28 4 1 0.997824 
-0.430624 -0.340041 -10.3637 0.0025 0.743583 0.660556 2.22087 0.0067242 29 4 1 0.997965 
-0.427309 -0.309202 -10.4081 0.0025 0.764354 0.686528 2.24547 0.00654147 30 4 1 0.998096 
-0.424082 -0.279304 -10.43 0.0025 0.784964 0.71258 2.26949 0.00636972 31 4 1 0.998217 
-0.420938 -0.250282 -10.4451 0.0025 0.805398 0.738681 2.29293 0.00620811 32 4 1 0.998326 
-0.417872 -0.22206 -10.4707 0.0025 0.825665 0.764831 2.31582 0.00605572 33 4 1 0.998427 
-0.414881 -0.194637 -10.4858 0.0025 0.845767 0.791024 2.3382 0.0059118 34 4 1 0.998525 
-0.41196 -0.167902 -10.4716 0.0025 0.865675 0.817213 2.36006 0.00577584 35 4 1 0.998625 
-0.409104 -0.142034 -10.3762 0.0025 0.885322 0.843292 2.38133 0.00564766 36 4 1 0.998713 
-0.406311 -0.117116 -10.3273 0.0025 0.904711 0.869245 2.40204 0.00552663 37 4 1 0.998736 
-0.403577 -0.0924214 -10.8246 0.0025 0.924216 0.895596 2.42262 0.00540999 38 4 1 0.998793 
-0.400901 -0.0672744 -10.9516 0.0025 0.943789 0.92234 2.44308 0.00529779 39 4 1 0.999166 
-0.398279 -0.0453604 -8.04363 0.0025 0.96105 0.946058 2.46084 0.00520264 40 4 1 0.999472 
-0.395698 -0.0307799 -5.74232 0.0025 0.974763 0.964752 2.4746 0.00512945 41 4 1 0.999005 
-0.393149 -0.0122904 -12.8347 0.0025 0.991948 0.988573 2.49195 0.00504058 42 4 1 0.998146 
-0.390656 0.0218455 -18.0263 0.0025 1.01717 1.02446 2.51752 0.00491559 43 4 1 0.999348 
-0.388232 0.0478366 -5.96396 0.0025 1.03697 1.05264 2.53707 0.00482175 44 4 1 1.00004 
-0.385834 0.0503373 1.09292 0.0025 1.04144 1.05871 2.5412 0.00480104 45 3 1 1 
-0.383431 0.0458632 2.65112 0.0025 1.0377 1.05328 2.53746 0.00481835 46 4 1 0.999974 
-0.381016 0.0392846 3.45179 0.0025 1.0319 1.04501 2.53173 0.00484545 47 4 1 0.999914 
-0.378586 0.0317421 3.77495 0.0025 1.02545 1.03585 2.52535 0.00487589 48 4 1 0.999886 
-0.37614 0.0241581 3.65493 0.0025 1.01916 1.02693 2.51909 0.00490601 49 4 1 0.999886 
-0.37368 0.0173165 3.18196 0.0025 1.01361 1.01909 2.51356 0.00493288 50 4 1 0.999907 
-0.371207 0.0117107 2.52385 0.0025 1.00914 1.01279 2.5091 0.00495474 51 4 1 0.999938 
-0.368725 0.00749435 1.84414 0.0025 1.00581 1.00812 2.50579 0.0049711 52 4 1 0.999964 
-0.366236 0.00455398 1.25409 0.0025 1.00352 1.00491 2.5035 0.00498248 53 4 1 0.999983 
-0.363743 0.00263559 0.800538 0.0025 1.00203 1.00283 2.50202 0.00498988 54 4 1 0.999993 
-0.361246 0.00145607 0.48278 0.0025 1.00112 1.00155 2.50111 0.00499442 55 4 1 0.999997 
-0.358748 0.000769001 0.276272 0.0025 1.00059 1.00082 2.50058 0.00499706 56 4 1 0.999999 
-0.356249 0.000388532 0.150427 0.0025 1.0003 1.00041 2.50029 0.00499851 57 4 1 1 
-0.35375 0.000187826 0.0780484 0.0025 1.00014 1.0002 2.50014 0.00499928 58 4 1 1 
-0.35125 8.68596e-05 0.0386145 0.0025 1.00007 1.00009 2.50007 0.00499967 59 4 1 1 
-0.34875 3.84051e-05 0.0182197 0.0025 1.00003 1.00004 2.50003 0.00499985 60 4 1 1 
-0.34625 1.62232e-05 0.0081964 0.0025 1.00001 1.00002 2.50001 0.00499994 61 4 1 1 
-0.34375 6.54074e-06 0.0035136 0.0025 1.00001 1.00001 2.5 0.00499997 62 4 1 1 
-0.34125 2.51366e-06 0.00143402 0.0025 1 1 2.5 0.00499999 63 4 1 1 
-0.33875 9.19355e-07 0.000556568 0.0025 1 1 2.5 0.005 64 4 1 1 
-0.33625 3.19365e-07 0.000205101 0.0025 1 1 2.5 0.005 65 4 1 1 
-0.33375 1.05103e-07 7.16183e-05 0.0025 1 1 2.5 0.005 66 4 1 1 
-0.33125 3.26619e-08 2.36338e-05 0.0025 1 1 2.5 0.005 67 4 1 1 
-0.32875 9.54341e-09 7.3448e-06 0.0025 1 1 2.5 0.005 68 4 1 1 
-0.32625 2.60668e-09 2.13954e-06 0.0025 1 1 2.5 0.005 69 4 1 1 
-0.32375 6.60191e-10 5.80432e-07 0.0025 1 1 2.5 0.005 70 4 1 1 
-0.32125 1.53206e-10 1.45278e-07 0.0025 1 1 2.5 0.005 71 4 1 1 
-0.31875 3.19896e-11 3.3106e-08 0.0025 1 1 2.5 0.005 72 4 1 1 
-0.31625 5.83748e-12 6.68911e-09 0.0025 1 1 2.5 0.005 73 4 1 1 
-0.31375 8.54164e-13 1.15983e-09 0.0025 1 1 2.5 0.005 74 4 1 1 
-0.31125 9.03018e-14 1.58423e-10 0.0025 1 1 2.5 0.005 75 4 1 1 
-0.30875 -1.94557e-15 1.47793e-12 0.0025 1 1 2.5 0.005 76 5 1 1 
-0.30625 -6.82723e-17 1.13687e-13 0.0025 1 1 2.5 0.005 77 5 1 1 
-0.30375 -1.70479e-17 -5.68434e-14 0.0025 1 1 2.5 0.005 78 5 1 1 
-0.30125 0 0 0.0025 1 1 2.5 0.005 79 5 1 1 
-0.29875 0 0 0.0025 1 1 2.5 0.005 80 5 1 1 
-0.29625 0 0 0.0025 1 1 2.5 0.005 81 5 1 1 
-0.29375 0 0 0.0025 1 1 2.5 0.005 82 5 1 1 
-0.29125 0 0 0.0025 1 1 2.5 0.005 83 5 1 1 
-0.28875 0 0 0.0025 1 1 2.5 0.005 84 5 1 1 
-0.28625 0 0 0.0025 1 1 2.5 0.005 85 5 1 1 
-0.28375 0 0 0.0025 1 1 2.5 0.005 86 5 1 1 
-0.28125 0 0 0.0025 1 1 2.5 0.005 87 5 1 1 
-0.27875 0 0 0.0025 1 1 2.5 0.005 88 5 1 1 
-0.27625 0 0 0.0025 1 1 2.5 0.005 89 5 1 1 
-0.27375 0 0 0.0025 1 1 2.5 0.005 90 5 1 1 
-0.27125 0 0 0.0025 1 1 2.5 0.005 91 5 1 1 
-0.26875 0 0 0.0025 1 1 2.5 0.005 92 5 1 1 
-0.26625 0 0 0.0025 1 1 2.5 0.005 93 5 1 1 
-0.26375 0 0 0.0025 1 1 2.5 0.005 94 5 1 1 
-0.26125 0 0 0.0025 1 1 2.5 0.005 95 5 1 1 
-0.25875 0 0 0.0025 1 1 2.5 0.005 96 5 1 1 
-0.25625 0 0 0.0025 1 1 2.5 0.005 97 5 1 1 
-0.25375 0 0 0.0025 1 1 2.5 0.005 98 5 1 1 
-0.25125 0 0 0.0025 1 1 2.5 0.005 99 5 1 1 
-0.24875 0 0 0.0025 1 1 2.5 0.005 100 5 1 1 
-0.24625 0 0 0.0025 1 1 2.5 0.005 101 5 1 1 
-0.24375 0 0 0.0025 1 1 2.5 0.005 102 5 1 1 
-0.24125 0 0 0.0025 1 1 2.5 0.005 103 5 1 1 
-0.23875 0 0 0.0025 1 1 2.5 0.005 104 5 1 1 
-0.23625 0 0 0.0025 1 1 2.5 0.005 105 5 1 1 
-0.23375 0 0 0.0025 1 1 2.5 0.005 106 5 1 1 
-0.23125 0 0 0.0025 1 1 2.5 0.005 107 5 1 1 
-0.22875 0 0 0.0025 1 1 2.5 0.005 108 5 1 1 
-0.22625 0 0 0.0025 1 1 2.5 0.005 109 5 1 1 
-0.22375 0 0 0.0025 1 1 2.5 0.005 110 5 1 1 
-0.22125 0 0 0.0025 1 1 2.5 0.005 111 5 1 1 
-0.21875 0 0 0.0025 1 1 2.5 0.005 112 5 1 1 
-0.21625 0 0 0.0025 1 1 2.5 0.005 113 5 1 1 
-0.21375 0 0 0.0025 1 1 2.5 0.005 114 5 1 1 
-0.21125 0 0 0.0025 1 1 2.5 0.005 115 5 1 1 
-0.20875 0 0 0.0025 1 1 2.5 0.005 116 5 1 1 
-0.20625 0 0 0.0025 1 1 2.5 0.005 117 5 1 1 
-0.20375 0 0 0.0025 1 1 2.5 0.005 118 5 1 1 
-0.20125 0 0 0.0025 1 1 2.5 0.005 119 5 1 1 
-0.19875 0 0 0.0025 1 1 2.5 0.005 120 5 1 1 
-0.19625 0 0 0.0025 1 1 2.5 0.005 121 5 1 1 
-0.19375 0 0 0.0025 1 1 2.5 0.005 122 5 1 1 
-0.19125 0 0 0.0025 1 1 2.5 0.005 123 5 1 1 
-0.18875 0 0 0.0025 1 1 2.5 0.005 124 5 1 1 
-0.18625 0 0 0.0025 1 1 2.5 0.005 125 5 1 1 
-0.18375 0 0 0.0025 1 1 2.5 0.005 126 5 1 1 
-0.18125 0 0 0.0025 1 1 2.5 0.005 127 5 1 1 
-0.17875 0 0 0.0025 1 1 2.5 0.005 128 5 1 1 
-0.17625 0 0 0.0025 1 1 2.5 0.005 129 5 1 1 
-0.17375 0 0 0.0025 1 1 2.5 0.005 130 5 1 1 
-0.17125 0 0 0.0025 1 1 2.5 0.005 131 5 1 1 
-0.16875 0 0 0.0025 1 1 2.5 0.005 132 5 1 1 
-0.16625 0 0 0.0025 1 1 2.5 0.005 133 5 1 1 
-0.16375 0 0 0.0025 1 1 2.5 0.005 134 5 1 1 
-0.16125 0 0 0.0025 1 1 2.5 0.005 135 5 1 1 
-0.15875 0 0 0.0025 1 1 2.5 0.005 136 5 1 1 
-0.15625 0 0 0.0025 1 1 2.5 0.005 137 5 1 1 
-0.15375 0 0 0.0025 1 1 2.5 0.005 138 5 1 1 
-0.15125 0 0 0.0025 1 1 2.5 0.005 139 5 1 1 
-0.14875 0 0 0.0025 1 1 2.5 0.005 140 5 1 1 
-0.14625 0 0 0.0025 1 1 2.5 0.005 141 5 1 1 
-0.14375 0 0 0.0025 1 1 2.5 0.005 142 5 1 1 
-0.14125 0 0 0.0025 1 1 2.5 0.005 143 5 1 1 
-0.13875 0 0 0.0025 1 1 2.5 0.005 144 5 1 1 
-0.13625 0 0 0.0025 1 1 2.5 0.005 145 5 1 1 
-0.13375 0 0 0.0025 1 1 2.5 0.005 146 5 1 1 
-0.13125 0 0 0.0025 1 1 2.5 0.005 147 5 1 1 
-0.12875 0 0 0.0025 1 1 2.5 0.005 148 5 1 1 
-0.12625 0 0 0.0025 1 1 2.5 0.005 149 5 1 1 
-0.12375 0 0 0.0025 1 1 2.5 0.005 150 5 1 1 
-0.12125 0 0 0.0025 1 1 2.5 0.005 151 5 1 1 
-0.11875 0 0 0.0025 1 1 2.5 0.005 152 5 1 1 
-0.11625 0 0 0.0025 1 1 2.5 0.005 153 5 1 1 
-0.11375 0 0 0.0025 1 1 2.5 0.005 154 5 1 1 
-0.11125 0 0 0.0025 1 1 2.5 0.005 155 5 1 1 
-0.10875 0 0 0.0025 1 1 2.5 0.005 156 5 1 1 
-0.10625 0 0 0.0025 1 1 2.5 0.005 157 5 1 1 
-0.10375 0 0 0.0025 1 1 2.5 0.005 158 5 1 1 
-0.10125 0 0 0.0025 1 1 2.5 0.005 159 5 1 1 
-0.09875 0 0 0.0025 1 1 2.5 0.005 160 5 1 1 
-0.09625 0 0 0.0025 1 1 2.5 0.005 161 5 1 1 
-0.09375 0 0 0.0025 1 1 2.5 0.005 162 5 1 1 
-0.09125 0 0 0.0025 1 1 2.5 0.005 163 5 1 1 
-0.08875 0 0 0.0025 1 1 2.5 0.005 164 5 1 1 
-0.08625 0 0 0.0025 1 1 2.5 0.005 165 5 1 1 
-0.08375 0 0 0.0025 1 1 2.5 0.005 166 5 1 1 
-0.08125 0 0 0.0025 1 1 2.5 0.005 167 5 1 1 
-0.07875 0 0 0.0025 1 1 2.5 0.005 168 5 1 1 
-0.07625 0 0 0.0025 1 1 2.5 0.005 169 5 1 1 
-0.07375 0 0 0.0025 1 1 2.5 0.005 170 5 1 1 
-0.07125 0 0 0.0025 1 1 2.5 0.005 171 5 1 1 
-0.06875 0 0 0.0025 1 1 2.5 0.005 172 5 1 1 
-0.06625 0 0 0.0025 1 1 2.5 0.005 173 5 1 1 
-0.06375 0 0 0.0025 1 1 2.5 0.005 174 5 1 1 
-0.06125 -8.40394e-47 -1.12104e-44 0.0025 1 1 2.5 0.005 175 5 1 1 
-0.05875 -1.02229e-16 -1.12104e-44 0.0025 1 1 2.5 0.005 176 5 1 1 
-0.05625 -2.71818e-16 0 0.0025 1 1 2.5 0.005 177 5 1 1 
-0.05375 -4.23292e-16 -5.68434e-14 0.0025 1 1 2.5 0.005 178 5 1 1 
-0.05125 -6.07238e-16 0 0.0025 1 1 2.5 0.005 179 5 1 1 
-0.04875 -8.40831e-16 -2.24208e-44 0.0025 1 1 2.5 0.005 180 5 1 1 
-0.04625 -1.07159e-15 -2.24208e-44 0.0025 1 1 2.5 0.005 181 5 1 1 
-0.04375 -1.43536e-15 0 0.0025 1 1 2.5 0.005 182 5 1 1 
-0.04125 -1.89132e-15 -1.12104e-44 0.0025 1 1 2.5 0.005 183 5 1 1 
-0.03875 -2.39188e-15 -5.68434e-14 0.0025 1 1 2.5 0.005 184 5 1 1 
-0.03625 -2.69896e-15 5.68434e-14 0.0025 1 1 2.5 0.005 185 5 1 1 
-0.03375 -4.38297e-15 -5.68434e-14 0.0025 1 1 2.5 0.005 186 4 1 1 
-0.03125 -6.2524e-16 6.31089e-28 0.0025 1 1 2.5 0.005 187 3 1 1 
-0.02875 -7.78064e-16 0 0.0025 1 1 2.5 0.005 188 3 1 1 
-0.02625 -1.08717e-15 5.68434e-14 0.0025 1 1 2.5 0.005 189 3 1 1 
-0.02375 1.52975e-15 5.68434e-14 0.0025 1 1 2.5 0.005 190 4 1 1 
-0.02125 2.03955e-15 1.13687e-13 0.0025 1 1 2.5 0.005 191 5 1 1 
-0.01875 -7.4607e-16 -1.89327e-27 0.0025 1 1 2.5 0.005 192 5 1 1 
-0.01625 -1.43332e-15 -3.41061e-13 0.0025 1 1 2.5 0.005 193 4 1 1 
-0.01375 2.47061e-17 -5.68434e-13 0.0025 1 1 2.5 0.005 194 3 1 1 
-0.01125 9.20436e-16 3.41061e-13 0.0025 1 1 2.5 0.005 195 3 1 1 
-0.00875 -6.58072e-16 2.27374e-13 0.0025 1 1 2.5 0.005 196 4 1 1 
-0.00625 -5.91162e-16 0 0.0025 1 1 2.5 0.005 197 3 1 1 
-0.00375 3.07645e-16 -2.27374e-13 0.0025 1 1 2.5 0.005 198 3 1 1 
-0.00125 6.59012e-17 1.13687e-13 0.0025 1 1 2.5 0.005 199 4 1 1 
0.00125 1.02728e-16 -8.87469e-29 0.0025 1 1 2.5 0.005 200 3 1 1 
0.00375 4.69759e-16 4.54747e-13 0.0025 1 1 2.5 0.005 201 4 1 1 
0.00625 7.24582e-16 -4.54747e-13 0.0025 1 1 2.5 0.005 202 5 1 1 
0.00875 1.04493e-16 2.27374e-13 0.0025 1 1 2.5 0.005 203 3 1 1 
0.01125 1.40564e-15 5.68434e-13 0.0025 1 1 2.5 0.005 204 4 1 1 
0.01375 1.79731e-15 -3.41061e-13 0.0025 1 1 2.5 0.005 205 4 1 1 
0.01625 2.1775e-15 -1.13687e-13 0.0025 1 1 2.5 0.005 206 3 1 1 
0.01875 1.11219e-16 2.27374e-13 0.0025 1 1 2.5 0.005 207 4 1 1 
0.02125 -1.27158e-15 -1.7053e-13 0.0025 1 1 2.5 0.005 208 5 1 1 
0.02375 2.30376e-15 -5.68434e-14 0.0025 1 1 2.5 0.005 209 5 1 1 
0.02625 1.21668e-15 -1.13687e-13 0.0025 1 1 2.5 0.005 210 4 1 1 
0.02875 -1.48224e-15 -2.84217e-13 0.0025 1 1 2.5 0.005 211 3 1 1 
0.03125 2.70097e-15 1.7053e-13 0.0025 1 1 2.5 0.005 212 4 1 1 
0.03375 2.41329e-16 2.27374e-13 0.0025 1 1 2.5 0.005 213 5 1 1 
0.03625 1.38749e-15 -3.9443e-29 0.0025 1 1 2.5 0.005 214 5 1 1 
0.03875 1.19264e-15 -5.68434e-14 0.0025 1 1 2.5 0.005 215 5 1 1 
0.04125 1.04231e-15 5.68434e-14 0.0025 1 1 2.5 0.005 216 5 1 1 
0.04375 9.00865e-16 0 0.0025 1 1 2.5 0.005 217 5 1 1 
0.04625 7.38239e-16 0 0.0025 1 1 2.5 0.005 218 5 1 1 
0.04875 5.73035e-16 0 0.0025 1 1 2.5 0.005 219 5 1 1 
0.05125 4.06037e-16 0 0.0025 1 1 2.5 0.005 220 5 1 1 
0.05375 2.3768e-16 0 0.0025 1 1 2.5 0.005 221 5 1 1 
0.05625 6.81437e-17 1.12104e-44 0.0025 1 1 2.5 0.005 222 5 1 1 
0.05875 8.40257e-47 1.12104e-44 0.0025 1 1 2.5 0.005 223 5 1 1 
0.06125 0 0 0.0025 1 1 2.5 0.005 224 5 1 1 
0.06375 0 0 0.0025 1 1 2.5 0.005 225 5 1 1 
0.06625 0 0 0.0025 1 1 2.5 0.005 226 5 1 1 
0.06875 0 0 0.0025 1 1 2.5 0.005 227 5 1 1 
0.07125 0 0 0.0025 1 1 2.5 0.005 228 5 1 1 
0.07375 0 0 0.0025 1 1 2.5 0.005 229 5 1 1 
0.07625 0 0 0.0025 1 1 2.5 0.005 230 5 1 1 
0.07875 0 0 0.0025 1 1 2.5 0.005 231 5 1 1 
0.08125 0 0 0.0025 1 1 2.5 0.005 232 5 1 1 
0.08375 0 0 0.0025 1 1 2.5 0.005 233 5 1 1 
0.08625 0 0 0.0025 1 1 2.5 0.005 234 5 1 1 
0.08875 0 0 0.0025 1 1 2.5 0.005 235 5 1 1 
0.09125 -4.64304e-46 -1.12104e-44 0.0025 1 1 2.5 0.005 236 5 1 1 
0.09375 -3.35691e-17 -1.12104e-44 0.0025 1 1 2.5 0.005 237 5 1 1 
0.09625 -2.00225e-16 1.12104e-44 0.0025 1 1 2.5 0.005 238 5 1 1 
0.09875 -3.32868e-16 1.12104e-44 0.0025 1 1 2.5 0.005 239 5 1 1 
0.10125 7.41508e-16 5.68434e-14 0.0025 1 1 2.5 0.005 240 5 1 1 
0.10375 5.62899e-16 6.72623e-44 0.0025 1 1 2.5 0.005 241 5 1 1 
0.10625 3.37999e-15 -5.68434e-14 0.0025 1 1 2.5 0.005 242 5 1 1 
0.10875 2.10081e-15 1.13687e-13 0.0025 1 1 2.5 0.005 243 5 1 1 
0.11125 1.58131e-15 -1.13687e-13 0.0025 1 1 2.5 0.005 244 5 1 1 
0.11375 -1.30854e-15 1.79366e-43 0.0025 1 1 2.5 0.005 245 5 1 1 
0.11625 -2.03658e-15 -1.13687e-13 0.0025 1 1 2.5 0.005 246 5 1 1 
0.11875 -4.92278e-15 -1.13687e-13 0.0025 1 1 2.5 0.005 247 5 1 1 
0.12125 -3.95401e-16 2.27374e-13 0.0025 1 1 2.5 0.005 248 5 1 1 
0.12375 -3.69448e-15 2.27374e-13 0.0025 1 1 2.5 0.005 249 4 1 1 
0.12625 3.69448e-15 -2.27374e-13 0.0025 1 1 2.5 0.005 250 4 1 1 
0.12875 3.95401e-16 -2.27374e-13 0.0025 1 1 2.5 0.005 251 5 1 1 
0.13125 4.92278e-15 1.13687e-13 0.0025 1 1 2.5 0.005 252 5 1 1 
0.13375 2.03658e-15 1.13687e-13 0.0025 1 1 2.5 0.005 253 5 1 1 
0.13625 1.30854e-15 -1.79366e-43 0.0025 1 1 2.5 0.005 254 5 1 1 
0.13875 -1.58131e-15 1.13687e-13 0.0025 1 1 2.5 0.005 255 5 1 1 
0.14125 -2.10081e-15 -1.13687e-13 0.0025 1 1 2.5 0.005 256 5 1 1 
0.14375 -3.37999e-15 5.68434e-14 0.0025 1 1 2.5 0.005 257 5 1 1 
0.14625 -5.62899e-16 -6.72623e-44 0.0025 1 1 2.5 0.005 258 5 1 1 
0.14875 -7.41508e-16 -5.68434e-14 0.0025 1 1 2.5 0.005 259 5 1 1 
0.15125 3.32868e-16 -1.12104e-44 0.0025 1 1 2.5 0.005 260 5 1 1 
0.15375 2.00225e-16 -1.12104e-44 0.0025 1 1 2.5 0.005 261 5 1 1 
0.15625 3.35691e-17 1.12104e-44 0.0025 1 1 2.5 0.005 262 5 1 1 
0.15875 4.64304e-46 1.12104e-44 0.0025 1 1 2.5 0.005 263 5 1 1 
0.16125 0 0 0.0025 1 1 2.5 0.005 264 5 1 1 
0.16375 0 0 0.0025 1 1 2.5 0.005 265 5 1 1 
0.16625 0 0 0.0025 1 1 2.5 0.005 266 5 1 1 
0.16875 0 0 0.0025 1 1 2.5 0.005 267 5 1 1 
0.17125 0 0 0.0025 1 1 2.5 0.005 268 5 1 1 
0.17375 0 0 0.0025 1 1 2.5 0.005 269 5 1 1 
0.17625 0 0 0.0025 1 1 2.5 0.005 270 5 1 1 
0.17875 0 0 0.0025 1 1 2.5 0.005 271 5 1 1 
0.18125 0 0 0.0025 1 1 2.5 0.005 272 5 1 1 
0.18375 0 0 0.0025 1 1 2.5 0.005 273 5 1 1 
0.18625 0 0 0.0025 1 1 2.5 0.005 274 5 1 1 
0.18875 0 0 0.0025 1 1 2.5 0.005 275 5 1 1 
0.19125 0 0 0.0025 1 1 2.5 0.005 276 5 1 1 
0.19375 0 0 0.0025 1 1 2.5 0.005 277 5 1 1 
0.19625 0 0 0.0025 1 1 2.5 0.005 278 5 1 1 
0.19875 0 0 0.0025 1 1 2.5 0.005 279 5 1 1 
0.20125 -1.84615e-46 -1.12104e-44 0.0025 1 1 2.5 0.005 280 5 1 1 
0.20375 -1.01886e-16 -1.12104e-44 0.0025 1 1 2.5 0.005 281 5 1 1 
0.20625 -2.71073e-16 0 0.0025 1 1 2.5 0.005 282 5 1 1 
0.20875 -4.39498e-16 0 0.0025 1 1 2.5 0.005 283 5 1 1 
0.21125 -6.06603e-16 1.12104e-44 0.0025 1 1 2.5 0.005 284 5 1 1 
0.21375 -7.72562e-16 1.12104e-44 0.0025 1 1 2.5 0.005 285 5 1 1 
0.21625 -6.79504e-16 5.68434e-14 0.0025 1 1 2.5 0.005 286 5 1 1 
0.21875 -8.55668e-16 6.72623e-44 0.0025 1 1 2.5 0.005 287 5 1 1 
0.22125 1.3809e-15 5.68434e-14 0.0025 1 1 2.5 0.005 288 5 1 1 
0.22375 3.6698e-16 1.13687e-13 0.0025 1 1 2.5 0.005 289 5 1 1 
0.22625 -1.68615e-16 1.13687e-13 0.0025 1 1 2.5 0.005 290 5 1 1 
0.22875 -1.75984e-15 5.68434e-14 0.0025 1 1 2.5 0.005 291 5 1 1 
0.23125 2.69497e-15 -5.68434e-14 0.0025 1 1 2.5 0.005 292 5 1 1 
0.23375 7.01108e-17 3.47522e-43 0.0025 1 1 2.5 0.005 293 5 1 1 
0.23625 2.70822e-15 5.68434e-13 0.0025 1 1 2.5 0.005 294 5 1 1 
0.23875 -5.47625e-16 5.11591e-13 0.0025 1 1 2.5 0.005 295 5 1 1 
0.24125 2.52589e-15 -6.82121e-13 0.0025 1 1 2.5 0.005 296 5 1 1 
0.24375 -2.13932e-15 -6.82121e-13 0.0025 1 1 2.5 0.005 297 5 1 1 
0.24625 4.65185e-15 7.38964e-13 0.0025 1 1 2.5 0.005 298 5 1 1 
0.24875 -1.35769e-15 7.38964e-13 0.0025 1 1 2.5 0.005 299 3 1 1 
0.25125 1.35769e-15 -7.38964e-13 0.0025 1 1 2.5 0.005 300 3 1 1 
0.25375 -4.65185e-15 -7.38964e-13 0.0025 1 1 2.5 0.005 301 5 1 1 
0.25625 2.13932e-15 6.82121e-13 0.0025 1 1 2.5 0.005 302 5 1 1 
0.25875 -2.52589e-15 6.82121e-13 0.0025 1 1 2.5 0.005 303 5 1 1 
0.26125 5.47625e-16 -5.11591e-13 0.0025 1 1 2.5 0.005 304 5 1 1 
0.26375 -2.70822e-15 -5.68434e-13 0.0025 1 1 2.5 0.005 305 5 1 1 
0.26625 -7.01108e-17 -3.47522e-43 0.0025 1 1 2.5 0.005 306 5 1 1 
0.26875 -2.69497e-15 5.68434e-14 0.0025 1 1 2.5 0.005 307 5 1 1 
0.27125 1.75984e-15 -5.68434e-14 0.0025 1 1 2.5 0.005 308 5 1 1 
0.27375 1.68615e-16 -1.13687e-13 0.0025 1 1 2.5 0.005 309 5 1 1 
0.27625 -3.6698e-16 -1.13687e-13 0.0025 1 1 2.5 0.005 310 5 1 1 
0.27875 -1.3809e-15 -5.68434e-14 0.0025 1 1 2.5 0.005 311 5 1 1 
0.28125 8.55668e-16 -6.72623e-44 0.0025 1 1 2.5 0.005 312 5 1 1 
0.28375 6.79504e-16 -5.68434e-14 0.0025 1 1 2.5 0.005 313 5 1 1 
0.28625 7.72562e-16 -1.12104e-44 0.0025 1 1 2.5 0.005 314 5 1 1 
0.28875 6.06603e-16 -1.12104e-44 0.0025 1 1 2.5 0.005 315 5 1 1 
0.29125 4.39498e-16 0 0.0025 1 1 2.5 0.005 316 5 1 1 
0.29375 2.71073e-16 0 0.0025 1 1 2.5 0.005 317 5 1 1 
0.29625 1.01886e-16 1.12104e-44 0.0025 1 1 2.5 0.005 318 5 1 1 
0.29875 1.84615e-46 1.12104e-44 0.0025 1 1 2.5 0.005 319 5 1 1 
0.30125 0 0 0.0025 1 1 2.5 0.005 320 5 1 1 
0.30375 1.70479e-17 5.68434e-14 0.0025 1 1 2.5 0.005 321 5 1 1 
0.30625 6.64889e-16 2.10321e-12 0.0025 1 1 2.5 0.005 322 5 1 1 
0.30875 -4.34571e-15 -1.94973e-11 0.0025 1 1 2.5 0.005 323 4 1 1 
