# Time [s]: 0.1025
# Columns: pos [m], vel [m/s], acc [m/s^2], mass [kg], dens [kg/m^3], pres [Pa], ene [J/kg], sml [m], id, neighbor, alpha, gradh, ...additional?
-0.769774 -3.16718 -4.4913 0.0025 0.0311375 0.00867419 0.696448 0.160578 0 5 1 1.04088 
-0.703609 -2.6308 -5.33484 0.0025 0.0540947 0.0168166 0.777188 0.0924305 1 5 1 0.978034 
-0.665463 -2.32172 -5.82478 0.0025 0.0810877 0.0297194 0.916281 0.0616616 2 4 1 0.948821 
-0.638801 -2.10604 -6.16079 0.0025 0.108664 0.0447763 1.03017 0.0460136 3 4 1 0.952336 
-0.618263 -1.9402 -6.4177 0.0025 0.135483 0.0609584 1.12484 0.0369049 4 4 1 0.960844 
-0.601377 -1.80406 -6.62741 0.0025 0.160996 0.0776019 1.20504 0.0310567 5 4 1 0.96866 
-0.586936 -1.68778 -6.80576 0.0025 0.185504 0.0946208 1.2752 0.0269536 6 4 1 0.974723 
-0.574264 -1.58588 -6.95995 0.0025 0.20925 0.111993 1.33804 0.0238949 7 4 1 0.979292 
-0.562939 -1.49492 -7.10129 0.0025 0.232381 0.129691 1.39525 0.0215164 8 4 1 0.982774 
-0.552678 -1.41255 -7.22708 0.0025 0.255001 0.147694 1.44799 0.0196077 9 4 1 0.985488 
-0.543281 -1.33725 -7.33034 0.0025 0.277172 0.165971 1.49702 0.0180393 10 4 1 0.987578 
-0.534602 -1.26775 -7.45845 0.0025 0.298972 0.184522 1.54298 0.016724 11 4 1 0.989249 
-0.526529 -1.20292 -7.56845 0.0025 0.320468 0.203352 1.58638 0.0156022 12 4 1 0.990618 
-0.518978 -1.14234 -7.66409 0.0025 0.341676 0.222432 1.62752 0.0146338 13 4 1 0.991749 
-0.511878 -1.08535 -7.74996 0.0025 0.362612 0.241739 1.66666 0.0137888 14 4 1 0.992664 
-0.505175 -1.03151 -7.86375 0.0025 0.383328 0.261285 1.70407 0.0130437 15 4 1 0.993454 
-0.498823 -0.980427 -7.93169 0.0025 0.403834 0.281055 1.73993 0.0123813 16 4 1 0.99411 
-0.492784 -0.931829 -8.03289 0.0025 0.424143 0.301035 1.77439 0.0117885 17 4 1 0.994672 
-0.487027 -0.885429 -8.11634 0.0025 0.444292 0.321239 1.80761 0.0112539 18 4 1 0.995164 
-0.481523 -0.841044 -8.18862 0.0025 0.46427 0.341638 1.83966 0.0107696 19 4 1 0.995583 
-0.476251 -0.798419 -8.2782 0.0025 0.484101 0.362236 1.87068 0.0103284 20 4 1 0.995957 
-0.47119 -0.757551 -8.34157 0.0025 0.503788 0.383022 1.90072 0.00992481 21 4 1 0.996286 
-0.466322 -0.718148 -8.41108 0.0025 0.523327 0.403974 1.92985 0.00955426 22 4 1 0.996579 
-0.461632 -0.680211 -8.47023 0.0025 0.542724 0.425087 1.95813 0.00921279 23 4 1 0.996837 
-0.457106 -0.643588 -8.53761 0.0025 0.561987 0.446355 1.98563 0.00889701 24 4 1 0.997072 
-0.452732 -0.608239 -8.58275 0.0025 0.581113 0.467763 2.01237 0.00860418 25 4 1 0.997284 
-0.448499 -0.573984 -8.62869 0.0025 0.600094 0.489288 2.03839 0.00833203 26 4 1 0.997469 
-0.444397 -0.540874 -8.68767 0.0025 0.618948 0.51094 2.06376 0.00807822 27 4 1 0.997641 
-0.440419 -0.508761 -8.72334 0.0025 0.637675 0.53271 2.0885 0.00784098 28 4 1 0.997796 
-0.436555 -0.477599 -8.76897 0.0025 0.656271 0.554582 2.11264 0.00761881 29 4 1 0.997938 
-0.432798 -0.447347 -8.79544 0.0025 0.674735 0.576546 2.13621 0.00741031 30 4 1 0.998064 
-0.429143 -0.417926 -8.84937 0.0025 0.693081 0.598608 2.15924 0.00721416 31 4 1 0.99818 
-0.425583 -0.389344 -8.88091 0.0025 0.711318 0.620771 2.18178 0.00702921 32 4 1 0.998291 
-0.422112 -0.3615 -8.89015 0.0025 0.729417 0.642994 2.20381 0.00685479 33 4 1 0.998387 
-0.418727 -0.334378 -8.94362 0.0025 0.7474 0.665293 2.22538 0.00668986 34 4 1 0.998476 
-0.415421 -0.307931 -8.96854 0.0025 0.765283 0.687684 2.24652 0.00653353 35 4 1 0.998562 
-0.412192 -0.282147 -8.9853 0.0025 0.783045 0.710129 2.26722 0.00638533 36 4 1 0.998639 
-0.409035 -0.257008 -9.01263 0.0025 0.800689 0.732629 2.28751 0.00624462 37 4 1 0.998715 
-0.405947 -0.232468 -9.00699 0.0025 0.818202 0.755158 2.30739 0.00611096 38 4 1 0.998782 
-0.402923 -0.208492 -9.03775 0.0025 0.835591 0.77772 2.32687 0.00598379 39 4 1 0.998844 
-0.399962 -0.185115 -9.04922 0.0025 0.852871 0.800328 2.346 0.00586255 40 4 1 0.998903 
-0.39706 -0.162256 -9.05419 0.0025 0.870025 0.822952 2.36475 0.00574696 41 4 1 0.998963 
-0.394215 -0.139909 -9.03753 0.0025 0.887026 0.845554 2.38312 0.00563681 42 4 1 0.999029 
-0.391423 -0.118224 -8.91562 0.0025 0.903793 0.868012 2.40103 0.00553224 43 4 1 0.999086 
-0.388682 -0.0973004 -8.84401 0.0025 0.920319 0.890296 2.41848 0.0054329 44 4 1 0.999082 
-0.385989 -0.0763882 -9.4082 0.0025 0.937054 0.913044 2.43598 0.00533587 45 4 1 0.999103 
-0.383345 -0.0547951 -9.60179 0.0025 0.954014 0.936343 2.45359 0.00524101 46 4 1 0.999401 
-0.380748 -0.0360074 -6.80395 0.0025 0.968806 0.956754 2.46873 0.00516099 47 4 1 0.999657 
-0.378184 -0.0242855 -4.39934 0.0025 0.980014 0.972046 2.4799 0.00510197 48 4 1 0.999326 
-0.375646 -0.00963672 -10.5801 0.0025 0.994051 0.991496 2.49402 0.00502992 49 4 1 0.998565 
-0.373154 0.01975 -16.0666 0.0025 1.01591 1.0226 2.51618 0.00492172 50 4 1 0.999397 
-0.370723 0.0440909 -6.1723 0.0025 1.03417 1.04861 2.53427 0.00483477 51 4 1 1.00003 
-0.368319 0.0473212 0.80965 0.0025 1.03904 1.05528 2.53882 0.00481211 52 3 1 1 
-0.365911 0.043804 2.1219 0.0025 1.03618 1.05111 2.53595 0.00482541 53 4 1 0.999987 
-0.363494 0.0383731 2.86609 0.0025 1.03136 1.04423 2.53118 0.00484799 54 4 1 0.999941 
-0.361063 0.0319627 3.2305 0.0025 1.02582 1.03637 2.52571 0.00487414 55 4 1 0.999917 
-0.358619 0.0252842 3.25382 0.0025 1.02021 1.02843 2.52014 0.00490093 56 4 1 0.999911 
-0.356162 0.0189845 2.97359 0.0025 1.01504 1.02111 2.51499 0.00492592 57 4 1 0.999921 
-0.353693 0.0135421 2.49487 0.0025 1.01065 1.01492 2.51061 0.00494733 58 4 1 0.999941 
-0.351215 0.00919611 1.94014 0.0025 1.00718 1.01005 2.50716 0.00496433 59 4 1 0.999962 
-0.348729 0.00596085 1.41082 0.0025 1.00463 1.00647 2.50462 0.00497694 60 4 1 0.999979 
-0.346238 0.00369792 0.966792 0.0025 1.00286 1.00399 2.50285 0.00498573 61 4 1 0.99999 
-0.343743 0.00220055 0.628285 0.0025 1.0017 1.00237 2.50169 0.00499152 62 4 1 0.999995 
-0.341246 0.00125821 0.389034 0.0025 1.00097 1.00135 2.50096 0.00499516 63 4 1 0.999998 
-0.338748 0.00069198 0.230271 0.0025 1.00053 1.00074 2.50053 0.00499734 64 4 1 0.999999 
-0.336249 0.000366275 0.130563 0.0025 1.00028 1.00039 2.50028 0.0049986 65 4 1 1 
-0.33375 0.000186635 0.0710031 0.0025 1.00014 1.0002 2.50014 0.00499929 66 4 1 1 
-0.33125 9.15433e-05 0.0370594 0.0025 1.00007 1.0001 2.50007 0.00499965 67 4 1 1 
-0.32875 4.3212e-05 0.0185696 0.0025 1.00003 1.00005 2.50003 0.00499983 68 4 1 1 
-0.32625 1.96224e-05 0.00893295 0.0025 1.00002 1.00002 2.50001 0.00499992 69 4 1 1 
-0.32375 8.56708e-06 0.0041246 0.0025 1.00001 1.00001 2.50001 0.00499997 70 4 1 1 
-0.32125 3.59379e-06 0.00182724 0.0025 1 1 2.5 0.00499999 71 4 1 1 
-0.31875 1.44726e-06 0.00077624 0.0025 1 1 2.5 0.00499999 72 4 1 1 
-0.31625 5.58942e-07 0.000315977 0.0025 1 1 2.5 0.005 73 4 1 1 
-0.31375 2.06762e-07 0.000123127 0.0025 1 1 2.5 0.005 74 4 1 1 
-0.31125 7.31458e-08 4.58733e-05 0.0025 1 1 2.5 0.005 75 4 1 1 
-0.30875 2.47e-08 1.63154e-05 0.0025 1 1 2.5 0.005 76 4 1 1 
-0.30625 7.94246e-09 5.52858e-06 0.0025 1 1 2.5 0.005 77 4 1 1 
-0.30375 2.42467e-09 1.78042e-06 0.0025 1 1 2.5 0.005 78 4 1 1 
-0.30125 6.99989e-10 5.43128e-07 0.0025 1 1 2.5 0.005 79 4 1 1 
-0.29875 1.90115e-10 1.5631e-07 0.0025 1 1 2.5 0.005 80 4 1 1 
-0.29625 4.82313e-11 4.21572e-08 0.0025 1 1 2.5 0.005 81 4 1 1 
-0.29375 1.13295e-11 1.06028e-08 0.0025 1 1 2.5 0.005 82 4 1 1 
-0.29125 2.40142e-12 2.4333e-09 0.0025 1 1 2.5 0.005 83 4 1 1 
-0.28875 4.64237e-13 5.10227e-10 0.0025 1 1 2.5 0.005 84 4 1 1 
-0.28625 7.01853e-14 1.04478e-10 0.0025 1 1 2.5 0.005 85 4 1 1 
-0.28375 1.67803e-15 3.52429e-12 0.0025 1 1 2.5 0.005 86 5 1 1 
-0.28125 2.05494e-16 6.82121e-13 0.0025 1 1 2.5 0.005 87 5 1 1 
-0.27875 4.05265e-47 1.34525e-43 0.0025 1 1 2.5 0.005 88 5 1 1 
-0.27625 0 0 0.0025 1 1 2.5 0.005 89 5 1 1 
-0.27375 0 0 0.0025 1 1 2.5 0.005 90 5 1 1 
-0.27125 0 0 0.0025 1 1 2.5 0.005 91 5 1 1 
-0.26875 0 0 0.0025 1 1 2.5 0.005 92 5 1 1 
-0.26625 0 0 0.0025 1 1 2.5 0.005 93 5 1 1 
-0.26375 0 0 0.0025 1 1 2.5 0.005 94 5 1 1 
-0.26125 0 0 0.0025 1 1 2.5 0.005 95 5 1 1 
-0.25875 0 0 0.0025 1 1 2.5 0.005 96 5 1 1 
-0.25625 0 0 0.0025 1 1 2.5 0.005 97 5 1 1 
-0.25375 0 0 0.0025 1 1 2.5 0.005 98 5 1 1 
-0.25125 0 0 0.0025 1 1 2.5 0.005 99 5 1 1 
-0.24875 0 0 0.0025 1 1 2.5 0.005 100 5 1 1 
-0.24625 0 0 0.0025 1 1 2.5 0.005 101 5 1 1 
-0.24375 0 0 0.0025 1 1 2.5 0.005 102 5 1 1 
-0.24125 0 0 0.0025 1 1 2.5 0.005 103 5 1 1 
-0.23875 0 0 0.0025 1 1 2.5 0.005 104 5 1 1 
-0.23625 0 0 0.0025 1 1 2.5 0.005 105 5 1 1 
-0.23375 0 0 0.0025 1 1 2.5 0.005 106 5 1 1 
-0.23125 0 0 0.0025 1 1 2.5 0.005 107 5 1 1 
-0.22875 0 0 0.0025 1 1 2.5 0.005 108 5 1 1 
-0.22625 0 0 0.0025 1 1 2.5 0.005 109 5 1 1 
-0.22375 0 0 0.0025 1 1 2.5 0.005 110 5 1 1 
-0.22125 0 0 0.0025 1 1 2.5 0.005 111 5 1 1 
-0.21875 0 0 0.0025 1 1 2.5 0.005 112 5 1 1 
-0.21625 0 0 0.0025 1 1 2.5 0.005 113 5 1 1 
-0.21375 0 0 0.0025 1 1 2.5 0.005 114 5 1 1 
-0.21125 0 0 0.0025 1 1 2.5 0.005 115 5 1 1 
-0.20875 0 0 0.0025 1 1 2.5 0.005 116 5 1 1 
-0.20625 0 0 0.0025 1 1 2.5 0.005 117 5 1 1 
-0.20375 0 0 0.0025 1 1 2.5 0.005 118 5 1 1 
-0.20125 0 0 0.0025 1 1 2.5 0.005 119 5 1 1 
-0.19875 0 0 0.0025 1 1 2.5 0.005 120 5 1 1 
-0.19625 0 0 0.0025 1 1 2.5 0.005 121 5 1 1 
-0.19375 0 0 0.0025 1 1 2.5 0.005 122 5 1 1 
-0.19125 0 0 0.0025 1 1 2.5 0.005 123 5 1 1 
-0.18875 0 0 0.0025 1 1 2.5 0.005 124 5 1 1 
-0.18625 0 0 0.0025 1 1 2.5 0.005 125 5 1 1 
-0.18375 0 0 0.0025 1 1 2.5 0.005 126 5 1 1 
-0.18125 0 0 0.0025 1 1 2.5 0.005 127 5 1 1 
-0.17875 0 0 0.0025 1 1 2.5 0.005 128 5 1 1 
-0.17625 0 0 0.0025 1 1 2.5 0.005 129 5 1 1 
-0.17375 0 0 0.0025 1 1 2.5 0.005 130 5 1 1 
-0.17125 0 0 0.0025 1 1 2.5 0.005 131 5 1 1 
-0.16875 0 0 0.0025 1 1 2.5 0.005 132 5 1 1 
-0.16625 0 0 0.0025 1 1 2.5 0.005 133 5 1 1 
-0.16375 0 0 0.0025 1 1 2.5 0.005 134 5 1 1 
-0.16125 0 0 0.0025 1 1 2.5 0.005 135 5 1 1 
-0.15875 0 0 0.0025 1 1 2.5 0.005 136 5 1 1 
-0.15625 0 0 0.0025 1 1 2.5 0.005 137 5 1 1 
-0.15375 0 0 0.0025 1 1 2.5 0.005 138 5 1 1 
-0.15125 0 0 0.0025 1 1 2.5 0.005 139 5 1 1 
-0.14875 0 0 0.0025 1 1 2.5 0.005 140 5 1 1 
-0.14625 0 0 0.0025 1 1 2.5 0.005 141 5 1 1 
-0.14375 0 0 0.0025 1 1 2.5 0.005 142 5 1 1 
-0.14125 0 0 0.0025 1 1 2.5 0.005 143 5 1 1 
-0.13875 0 0 0.0025 1 1 2.5 0.005 144 5 1 1 
-0.13625 0 0 0.0025 1 1 2.5 0.005 145 5 1 1 
-0.13375 0 0 0.0025 1 1 2.5 0.005 146 5 1 1 
-0.13125 0 0 0.0025 1 1 2.5 0.005 147 5 1 1 
-0.12875 0 0 0.0025 1 1 2.5 0.005 148 5 1 1 
-0.12625 0 0 0.0025 1 1 2.5 0.005 149 5 1 1 
-0.12375 0 0 0.0025 1 1 2.5 0.005 150 5 1 1 
-0.12125 0 0 0.0025 1 1 2.5 0.005 151 5 1 1 
-0.11875 0 0 0.0025 1 1 2.5 0.005 152 5 1 1 
-0.11625 0 0 0.0025 1 1 2.5 0.005 153 5 1 1 
-0.11375 0 0 0.0025 1 1 2.5 0.005 154 5 1 1 
-0.11125 0 0 0.0025 1 1 2.5 0.005 155 5 1 1 
-0.10875 0 0 0.0025 1 1 2.5 0.005 156 5 1 1 
-0.10625 0 0 0.0025 1 1 2.5 0.005 157 5 1 1 
-0.10375 0 0 0.0025 1 1 2.5 0.005 158 5 1 1 
-0.10125 0 0 0.0025 1 1 2.5 0.005 159 5 1 1 
-0.09875 0 0 0.0025 1 1 2.5 0.005 160 5 1 1 
-0.09625 0 0 0.0025 1 1 2.5 0.005 161 5 1 1 
-0.09375 0 0 0.0025 1 1 2.5 0.005 162 5 1 1 
-0.09125 0 0 0.0025 1 1 2.5 0.005 163 5 1 1 
-0.08875 0 0 0.0025 1 1 2.5 0.005 164 5 1 1 
-0.08625 0 0 0.0025 1 1 2.5 0.005 165 5 1 1 
-0.08375 0 0 0.0025 1 1 2.5 0.005 166 5 1 1 
-0.08125 0 0 0.0025 1 1 2.5 0.005 167 5 1 1 
-0.07875 0 0 0.0025 1 1 2.5 0.005 168 5 1 1 
-0.07625 0 0 0.0025 1 1 2.5 0.005 169 5 1 1 
-0.07375 0 0 0.0025 1 1 2.5 0.005 170 5 1 1 
-0.07125 0 0 0.0025 1 1 2.5 0.005 171 5 1 1 
-0.06875 0 0 0.0025 1 1 2.5 0.005 172 5 1 1 
-0.06625 0 0 0.0025 1 1 2.5 0.005 173 5 1 1 
-0.06375 -3.71376e-47 -1.12104e-44 0.0025 1 1 2.5 0.005 174 5 1 1 
-0.06125 -6.84204e-17 -1.12104e-44 0.0025 1 1 2.5 0.005 175 5 1 1 
-0.05875 -2.04775e-16 0 0.0025 1 1 2.5 0.005 176 5 1 1 
-0.05625 -3.7443e-16 0 0.0025 1 1 2.5 0.005 177 5 1 1 
-0.05375 -5.60065e-16 -5.68434e-14 0.0025 1 1 2.5 0.005 178 5 1 1 
-0.05125 -7.44046e-16 0 0.0025 1 1 2.5 0.005 179 5 1 1 
-0.04875 -9.77591e-16 0 0.0025 1 1 2.5 0.005 180 5 1 1 
-0.04625 -1.20837e-15 -2.24208e-44 0.0025 1 1 2.5 0.005 181 5 1 1 
-0.04375 -1.50368e-15 -2.24208e-44 0.0025 1 1 2.5 0.005 182 5 1 1 
-0.04125 -1.95968e-15 0 0.0025 1 1 2.5 0.005 183 5 1 1 
-0.03875 -2.32313e-15 5.68434e-14 0.0025 1 1 2.5 0.005 184 5 1 1 
-0.03625 -2.54497e-15 -5.52203e-28 0.0025 1 1 2.5 0.005 185 5 1 1 
-0.03375 -4.12652e-15 -3.15544e-28 0.0025 1 1 2.5 0.005 186 4 1 1 
-0.03125 -6.42611e-16 5.68434e-14 0.0025 1 1 2.5 0.005 187 3 1 1 
-0.02875 -1.03479e-15 -1.7053e-13 0.0025 1 1 2.5 0.005 188 3 1 1 
-0.02625 -1.29259e-15 -5.68434e-14 0.0025 1 1 2.5 0.005 189 3 1 1 
-0.02375 2.62376e-16 -5.11591e-13 0.0025 1 1 2.5 0.005 190 4 1 1 
-0.02125 -1.17753e-15 -4.54747e-13 0.0025 1 1 2.5 0.005 191 5 1 1 
-0.01875 -6.40816e-16 7.95808e-13 0.0025 1 1 2.5 0.005 192 5 1 1 
-0.01625 7.57932e-16 2.27374e-13 0.0025 1 1 2.5 0.005 193 4 1 1 
-0.01375 -1.23919e-15 -1.13687e-13 0.0025 1 1 2.5 0.005 194 3 1 1 
-0.01125 1.07579e-15 5.68434e-14 0.0025 1 1 2.5 0.005 195 3 1 1 
-0.00875 -6.07858e-16 1.7053e-13 0.0025 1 1 2.5 0.005 196 5 1 1 
-0.00625 4.32968e-16 -1.13687e-13 0.0025 1 1 2.5 0.005 197 4 1 1 
-0.00375 3.5886e-16 -5.68434e-14 0.0025 1 1 2.5 0.005 198 4 1 1 
-0.00125 8.35676e-16 2.84217e-13 0.0025 1 1 2.5 0.005 199 5 1 1 
0.00125 7.86455e-16 -2.27374e-13 0.0025 1 1 2.5 0.005 200 5 1 1 
0.00375 5.03689e-16 -3.41061e-13 0.0025 1 1 2.5 0.005 201 3 1 1 
0.00625 4.51111e-16 1.13687e-13 0.0025 1 1 2.5 0.005 202 3 1 1 
0.00875 1.16241e-15 1.13687e-13 0.0025 1 1 2.5 0.005 203 3 1 1 
0.01125 7.05291e-16 -5.68434e-14 0.0025 1 1 2.5 0.005 204 4 1 1 
0.01375 -6.31025e-16 -1.13687e-13 0.0025 1 1 2.5 0.005 205 3 1 1 
0.01625 2.095e-15 5.68434e-14 0.0025 1 1 2.5 0.005 206 3 1 1 
0.01875 -5.42624e-16 -1.13687e-13 0.0025 1 1 2.5 0.005 207 4 1 1 
0.02125 2.66222e-15 1.7053e-13 0.0025 1 1 2.5 0.005 208 4 1 1 
0.02375 5.09815e-16 1.13687e-13 0.0025 1 1 2.5 0.005 209 5 1 1 
0.02625 9.27442e-16 1.7053e-13 0.0025 1 1 2.5 0.005 210 4 1 1 
0.02875 -1.43034e-15 1.13687e-13 0.0025 1 1 2.5 0.005 211 3 1 1 
0.03125 3.64001e-15 -1.13687e-13 0.0025 1 1 2.5 0.005 212 4 1 1 
0.03375 1.71079e-15 1.85382e-27 0.0025 1 1 2.5 0.005 213 5 1 1 
0.03625 1.54162e-15 -5.68434e-14 0.0025 1 1 2.5 0.005 214 5 1 1 
0.03875 1.2953e-15 5.68434e-14 0.0025 1 1 2.5 0.005 215 5 1 1 
0.04125 1.07648e-15 -5.68434e-14 0.0025 1 1 2.5 0.005 216 5 1 1 
0.04375 9.17978e-16 5.68434e-14 0.0025 1 1 2.5 0.005 217 5 1 1 
0.04625 7.55366e-16 -5.68434e-14 0.0025 1 1 2.5 0.005 218 5 1 1 
0.04875 5.90114e-16 5.68434e-14 0.0025 1 1 2.5 0.005 219 5 1 1 
0.05125 4.23154e-16 -5.68434e-14 0.0025 1 1 2.5 0.005 220 5 1 1 
0.05375 2.54812e-16 5.68434e-14 0.0025 1 1 2.5 0.005 221 5 1 1 
0.05625 1.02398e-16 1.12104e-44 0.0025 1 1 2.5 0.005 222 5 1 1 
0.05875 2.45881e-46 1.12104e-44 0.0025 1 1 2.5 0.005 223 5 1 1 
0.06125 0 0 0.0025 1 1 2.5 0.005 224 5 1 1 
0.06375 0 0 0.0025 1 1 2.5 0.005 225 5 1 1 
0.06625 0 0 0.0025 1 1 2.5 0.005 226 5 1 1 
0.06875 0 0 0.0025 1 1 2.5 0.005 227 5 1 1 
0.07125 0 0 0.0025 1 1 2.5 0.005 228 5 1 1 
0.07375 0 0 0.0025 1 1 2.5 0.005 229 5 1 1 
0.07625 0 0 0.0025 1 1 2.5 0.005 230 5 1 1 
0.07875 0 0 0.0025 1 1 2.5 0.005 231 5 1 1 
0.08125 0 0 0.0025 1 1 2.5 0.005 232 5 1 1 
0.08375 0 0 0.0025 1 1 2.5 0.005 233 5 1 1 
0.08625 0 0 0.0025 1 1 2.5 0.005 234 5 1 1 
0.08875 0 0 0.0025 1 1 2.5 0.005 235 5 1 1 
0.09125 -6.26159e-46 -1.12104e-44 0.0025 1 1 2.5 0.005 236 5 1 1 
0.09375 -3.35691e-17 -1.12104e-44 0.0025 1 1 2.5 0.005 237 5 1 1 
0.09625 -2.00225e-16 1.12104e-44 0.0025 1 1 2.5 0.005 238 5 1 1 
0.09875 -3.32868e-16 1.12104e-44 0.0025 1 1 2.5 0.005 239 5 1 1 
0.10125 1.03204e-15 0 0.0025 1 1 2.5 0.005 240 5 1 1 
0.10375 8.70541e-16 6.72623e-44 0.0025 1 1 2.5 0.005 241 5 1 1 
0.10625 2.66158e-15 -5.68434e-14 0.0025 1 1 2.5 0.005 242 5 1 1 
0.10875 8.86728e-16 -5.68434e-14 0.0025 1 1 2.5 0.005 243 5 1 1 
0.11125 5.55584e-16 -8.96831e-44 0.0025 1 1 2.5 0.005 244 5 1 1 
0.11375 -1.94091e-15 -5.68434e-14 0.0025 1 1 2.5 0.005 245 5 1 1 
0.11625 6.84599e-16 3.97904e-13 0.0025 1 1 2.5 0.005 246 5 1 1 
0.11875 -2.25296e-15 3.41061e-13 0.0025 1 1 2.5 0.005 247 5 1 1 
0.12125 2.06417e-15 -7.14905e-27 0.0025 1 1 2.5 0.005 248 5 1 1 
0.12375 -7.21633e-16 -7.18849e-27 0.0025 1 1 2.5 0.005 249 4 1 1 
0.12625 7.21633e-16 7.18849e-27 0.0025 1 1 2.5 0.005 250 4 1 1 
0.12875 -2.06417e-15 7.14905e-27 0.0025 1 1 2.5 0.005 251 5 1 1 
0.13125 2.25296e-15 -3.41061e-13 0.0025 1 1 2.5 0.005 252 5 1 1 
0.13375 -6.84599e-16 -3.97904e-13 0.0025 1 1 2.5 0.005 253 5 1 1 
0.13625 1.94091e-15 5.68434e-14 0.0025 1 1 2.5 0.005 254 5 1 1 
0.13875 -5.55584e-16 8.96831e-44 0.0025 1 1 2.5 0.005 255 5 1 1 
0.14125 -8.86728e-16 5.68434e-14 0.0025 1 1 2.5 0.005 256 5 1 1 
0.14375 -2.66158e-15 5.68434e-14 0.0025 1 1 2.5 0.005 257 5 1 1 
0.14625 -8.70541e-16 -6.72623e-44 0.0025 1 1 2.5 0.005 258 5 1 1 
0.14875 -1.03204e-15 0 0.0025 1 1 2.5 0.005 259 5 1 1 
0.15125 3.32868e-16 -1.12104e-44 0.0025 1 1 2.5 0.005 260 5 1 1 
0.15375 2.00225e-16 -1.12104e-44 0.0025 1 1 2.5 0.005 261 5 1 1 
0.15625 3.35691e-17 1.12104e-44 0.0025 1 1 2.5 0.005 262 5 1 1 
0.15875 6.26159e-46 1.12104e-44 0.0025 1 1 2.5 0.005 263 5 1 1 
0.16125 0 0 0.0025 1 1 2.5 0.005 264 5 1 1 
0.16375 0 0 0.0025 1 1 2.5 0.005 265 5 1 1 
0.16625 0 0 0.0025 1 1 2.5 0.005 266 5 1 1 
0.16875 0 0 0.0025 1 1 2.5 0.005 267 5 1 1 
0.17125 0 0 0.0025 1 1 2.5 0.005 268 5 1 1 
0.17375 0 0 0.0025 1 1 2.5 0.005 269 5 1 1 
0.17625 0 0 0.0025 1 1 2.5 0.005 270 5 1 1 
0.17875 0 0 0.0025 1 1 2.5 0.005 271 5 1 1 
0.18125 0 0 0.0025 1 1 2.5 0.005 272 5 1 1 
0.18375 0 0 0.0025 1 1 2.5 0.005 273 5 1 1 
0.18625 0 0 0.0025 1 1 2.5 0.005 274 5 1 1 
0.18875 0 0 0.0025 1 1 2.5 0.005 275 5 1 1 
0.19125 0 0 0.0025 1 1 2.5 0.005 276 5 1 1 
0.19375 0 0 0.0025 1 1 2.5 0.005 277 5 1 1 
0.19625 0 0 0.0025 1 1 2.5 0.005 278 5 1 1 
0.19875 0 0 0.0025 1 1 2.5 0.005 279 5 1 1 
0.20125 -3.4647e-46 -1.12104e-44 0.0025 1 1 2.5 0.005 280 5 1 1 
0.20375 -1.01886e-16 -1.12104e-44 0.0025 1 1 2.5 0.005 281 5 1 1 
0.20625 -2.71073e-16 0 0.0025 1 1 2.5 0.005 282 5 1 1 
0.20875 -4.39498e-16 0 0.0025 1 1 2.5 0.005 283 5 1 1 
0.21125 -6.06603e-16 1.12104e-44 0.0025 1 1 2.5 0.005 284 5 1 1 
0.21375 -7.72562e-16 1.12104e-44 0.0025 1 1 2.5 0.005 285 5 1 1 
0.21625 -2.69153e-16 5.68434e-14 0.0025 1 1 2.5 0.005 286 5 1 1 
0.21875 -4.45317e-16 6.72623e-44 0.0025 1 1 2.5 0.005 287 5 1 1 
0.22125 2.40674e-15 5.68434e-14 0.0025 1 1 2.5 0.005 288 5 1 1 
0.22375 1.40997e-15 5.68434e-14 0.0025 1 1 2.5 0.005 289 5 1 1 
0.22625 8.7429e-16 5.68434e-14 0.0025 1 1 2.5 0.005 290 5 1 1 
0.22875 -7.50985e-16 1.13687e-13 0.0025 1 1 2.5 0.005 291 5 1 1 
0.23125 2.6779e-15 -1.90577e-43 0.0025 1 1 2.5 0.005 292 5 1 1 
0.23375 7.01108e-17 2.69049e-43 0.0025 1 1 2.5 0.005 293 5 1 1 
0.23625 4.24324e-15 -1.13687e-13 0.0025 1 1 2.5 0.005 294 5 1 1 
0.23875 4.23525e-16 -2.27374e-13 0.0025 1 1 2.5 0.005 295 5 1 1 
0.24125 5.83201e-15 3.97904e-13 0.0025 1 1 2.5 0.005 296 5 1 1 
0.24375 9.2725e-16 1.7053e-13 0.0025 1 1 2.5 0.005 297 5 1 1 
0.24625 -3.87812e-17 -5.68434e-14 0.0025 1 1 2.5 0.005 298 5 1 1 
0.24875 -5.60402e-15 -2.84217e-13 0.0025 1 1 2.5 0.005 299 3 1 1 
0.25125 5.60402e-15 2.84217e-13 0.0025 1 1 2.5 0.005 300 3 1 1 
0.25375 3.87812e-17 5.68434e-14 0.0025 1 1 2.5 0.005 301 5 1 1 
0.25625 -9.2725e-16 -1.7053e-13 0.0025 1 1 2.5 0.005 302 5 1 1 
0.25875 -5.83201e-15 -3.97904e-13 0.0025 1 1 2.5 0.005 303 5 1 1 
0.26125 -4.23525e-16 2.27374e-13 0.0025 1 1 2.5 0.005 304 5 1 1 
0.26375 -4.24324e-15 1.13687e-13 0.0025 1 1 2.5 0.005 305 5 1 1 
0.26625 -7.01108e-17 -2.69049e-43 0.0025 1 1 2.5 0.005 306 5 1 1 
0.26875 -2.6779e-15 1.90577e-43 0.0025 1 1 2.5 0.005 307 5 1 1 
0.27125 7.50985e-16 -1.13687e-13 0.0025 1 1 2.5 0.005 308 5 1 1 
0.27375 -8.7429e-16 -5.68434e-14 0.0025 1 1 2.5 0.005 309 5 1 1 
0.27625 -1.40997e-15 -5.68434e-14 0.0025 1 1 2.5 0.005 310 5 1 1 
0.27875 -2.38961e-15 3.9443e-29 0.0025 1 1 2.5 0.005 311 5 1 1 
0.28125 1.0618e-15 2.04636e-12 0.0025 1 1 2.5 0.005 312 5 1 1 
0.28375 -6.49468e-15 -2.44427e-11 0.0025 1 1 2.5 0.005 313 4 1 1 
0.28625 -7.33187e-14 -7.40101e-11 0.0025 1 1 2.5 0.005 314 4 1 1 
0.28875 -4.3662e-13 -5.11193e-10 0.0025 1 1 2.5 0.005 315 4 1 1 
0.29125 -2.33615e-12 -2.28363e-09 0.0025 1 1 2.5 0.005 316 4 1 1 
