# Time [s]: 0.110341
# Columns: pos [m], vel [m/s], acc [m/s^2], mass [kg], dens [kg/m^3], pres [Pa], ene [J/kg], sml [m], id, neighbor, alpha, gradh, ...additional?
-0.794743 -3.20091 -4.12192 0.0025 0.0292872 0.00796126 0.679589 0.170723 0 5 1 1.04083 
-0.724397 -2.67087 -4.89665 0.0025 0.0508816 0.015435 0.758383 0.0982673 1 5 1 0.978 
-0.683842 -2.36547 -5.34826 0.0025 0.0762763 0.0272803 0.894134 0.0655512 2 4 1 0.948816 
-0.655499 -2.15233 -5.65834 0.0025 0.102225 0.0411066 1.0053 0.0489116 3 4 1 0.952319 
-0.633669 -1.98843 -5.89527 0.0025 0.127467 0.0559696 1.09773 0.0392258 4 4 1 0.960822 
-0.615722 -1.85386 -6.08886 0.0025 0.151483 0.071259 1.17603 0.0330071 5 4 1 0.968637 
-0.600374 -1.73893 -6.25375 0.0025 0.174555 0.0868959 1.24454 0.0286442 6 4 1 0.974699 
-0.586907 -1.6382 -6.39701 0.0025 0.196914 0.10286 1.30591 0.0253918 7 4 1 0.979279 
-0.574873 -1.54828 -6.52401 0.0025 0.218693 0.119124 1.36178 0.0228631 8 4 1 0.982757 
-0.56397 -1.46689 -6.64439 0.0025 0.239993 0.13567 1.41328 0.0208339 9 4 1 0.98546 
-0.553986 -1.39238 -6.74678 0.0025 0.260881 0.152476 1.46118 0.0191659 10 4 1 0.987598 
-0.544765 -1.32371 -6.83469 0.0025 0.281394 0.169515 1.50604 0.0177687 11 4 1 0.98926 
-0.536188 -1.2598 -6.95115 0.0025 0.301606 0.186796 1.54835 0.0165779 12 4 1 0.990623 
-0.528164 -1.19991 -7.03789 0.0025 0.32156 0.204317 1.58849 0.0155492 13 4 1 0.991743 
-0.520621 -1.14361 -7.12831 0.0025 0.341268 0.222055 1.6267 0.0146512 14 4 1 0.992688 
-0.513498 -1.09049 -7.19532 0.0025 0.360743 0.23999 1.66318 0.0138603 15 4 1 0.993458 
-0.506748 -1.04006 -7.29504 0.0025 0.380018 0.258128 1.69814 0.0131573 16 4 1 0.994123 
-0.500331 -0.992105 -7.36017 0.0025 0.399117 0.276466 1.73174 0.0125276 17 4 1 0.994692 
-0.494212 -0.946342 -7.43541 0.0025 0.418037 0.294981 1.7641 0.0119607 18 4 1 0.995171 
-0.488363 -0.902528 -7.51961 0.0025 0.436812 0.31369 1.79535 0.0114466 19 4 1 0.995599 
-0.482759 -0.860561 -7.5766 0.0025 0.455442 0.332573 1.82557 0.0109784 20 4 1 0.995965 
-0.477379 -0.820157 -7.65593 0.0025 0.473934 0.351627 1.85484 0.01055 21 4 1 0.996292 
-0.472205 -0.781314 -7.71301 0.0025 0.492302 0.370848 1.88325 0.0101564 22 4 1 0.996579 
-0.467219 -0.74386 -7.78079 0.0025 0.510543 0.390223 1.91084 0.00979349 23 4 1 0.996841 
-0.462407 -0.70768 -7.82255 0.0025 0.528655 0.409738 1.93765 0.00945796 24 4 1 0.997068 
-0.457758 -0.672715 -7.89377 0.0025 0.546649 0.429391 1.96375 0.00914664 25 4 1 0.997277 
-0.453258 -0.63891 -7.93057 0.0025 0.564528 0.449177 1.98918 0.00885696 26 4 1 0.997465 
-0.448898 -0.606124 -7.98225 0.0025 0.582283 0.469075 2.01396 0.00858689 27 4 1 0.997635 
-0.444669 -0.574356 -8.02008 0.0025 0.599922 0.489085 2.03813 0.00833442 28 4 1 0.997788 
-0.440562 -0.543516 -8.06833 0.0025 0.617448 0.509202 2.06173 0.00809785 29 4 1 0.997927 
-0.436569 -0.513592 -8.10695 0.0025 0.634868 0.529425 2.0848 0.00787565 30 4 1 0.998057 
-0.432684 -0.48444 -8.1319 0.0025 0.652169 0.54973 2.10733 0.00766672 31 4 1 0.998172 
-0.428901 -0.456112 -8.17848 0.0025 0.669363 0.570124 2.12937 0.00746979 32 4 1 0.998279 
-0.425213 -0.428536 -8.20502 0.0025 0.686456 0.590607 2.15094 0.00728379 33 4 1 0.998376 
-0.421616 -0.401641 -8.24541 0.0025 0.703448 0.611173 2.17208 0.00710785 34 4 1 0.998468 
-0.418104 -0.375434 -8.25935 0.0025 0.720333 0.631808 2.19277 0.00694123 35 4 1 0.998552 
-0.414674 -0.349858 -8.28558 0.0025 0.737107 0.652497 2.21305 0.00678328 36 4 1 0.998625 
-0.41132 -0.324893 -8.33674 0.0025 0.7538 0.673276 2.23296 0.00663306 37 4 1 0.998698 
-0.40804 -0.30051 -8.33927 0.0025 0.770399 0.694121 2.25249 0.00649015 38 4 1 0.998765 
-0.404829 -0.276662 -8.36446 0.0025 0.786887 0.715005 2.27164 0.00635416 39 4 1 0.998828 
-0.401685 -0.253373 -8.37896 0.0025 0.803274 0.735937 2.29044 0.00622452 40 4 1 0.998886 
-0.398604 -0.230604 -8.39238 0.0025 0.819558 0.756905 2.3089 0.00610085 41 4 1 0.99894 
-0.395583 -0.208329 -8.41222 0.0025 0.835743 0.777912 2.32702 0.0059827 42 4 1 0.998991 
-0.392621 -0.186559 -8.42071 0.0025 0.851829 0.798953 2.34483 0.00586973 43 4 1 0.999041 
-0.389713 -0.165223 -8.40982 0.0025 0.867795 0.819994 2.36231 0.00576173 44 4 1 0.999086 
-0.386858 -0.144341 -8.43783 0.0025 0.883652 0.841048 2.37948 0.00565833 45 4 1 0.999133 
-0.384054 -0.12394 -8.39997 0.0025 0.899378 0.862078 2.39632 0.0055594 46 4 1 0.99919 
-0.381298 -0.104147 -8.23756 0.0025 0.91485 0.882906 2.41272 0.00546538 47 4 1 0.999228 
-0.378588 -0.0850146 -8.26366 0.0025 0.930144 0.90362 2.42875 0.00537551 48 4 1 0.999205 
-0.375923 -0.0655431 -8.93972 0.0025 0.945793 0.92499 2.44503 0.00528657 49 4 1 0.999252 
-0.373301 -0.0454786 -8.73696 0.0025 0.961461 0.946603 2.46123 0.00520042 50 4 1 0.999558 
-0.370722 -0.0292971 -5.49902 0.0025 0.974426 0.964502 2.4744 0.00513123 51 4 1 0.999718 
-0.36817 -0.0196388 -4.23376 0.0025 0.984357 0.978035 2.48425 0.00507946 52 4 1 0.999308 
-0.365642 -0.00408809 -11.3545 0.0025 0.998536 0.997812 2.49855 0.00500733 53 4 1 0.998728 
-0.363162 0.0248234 -14.5008 0.0025 1.01955 1.02779 2.5198 0.00490412 54 4 1 0.999641 
-0.360737 0.0443104 -3.86561 0.0025 1.03486 1.04953 2.53488 0.00483159 55 4 1 1.00002 
-0.358331 0.0454767 0.907359 0.0025 1.03769 1.0533 2.53745 0.00481842 56 3 1 1 
-0.355919 0.0418759 2.09409 0.0025 1.0346 1.04885 2.53438 0.00483278 57 4 1 0.999981 
-0.353498 0.0366942 2.70463 0.0025 1.03 1.04231 2.52984 0.00485435 58 4 1 0.999945 
-0.351065 0.0306792 3.01986 0.0025 1.02482 1.03495 2.52471 0.00487892 59 4 1 0.999927 
-0.348619 0.0244417 3.03404 0.0025 1.01958 1.02752 2.5195 0.004904 60 4 1 0.999922 
-0.346161 0.0185472 2.78377 0.0025 1.01473 1.02067 2.51468 0.00492744 61 4 1 0.99993 
-0.343691 0.0134167 2.35771 0.0025 1.01057 1.01482 2.51054 0.00494768 62 4 1 0.999947 
-0.341213 0.00926899 1.85938 0.0025 1.00726 1.01016 2.50724 0.00496396 63 4 1 0.999965 
-0.338727 0.00613013 1.37647 0.0025 1.00478 1.00668 2.50476 0.00497623 64 4 1 0.99998 
-0.336237 0.0038905 0.963319 0.0025 1.00302 1.00422 2.50301 0.00498495 65 4 1 0.99999 
-0.333742 0.00237436 0.641093 0.0025 1.00184 1.00256 2.50183 0.00499083 66 4 1 0.999995 
-0.331246 0.00139569 0.407531 0.0025 1.00108 1.0015 2.50107 0.00499462 67 4 1 0.999998 
-0.328748 0.000791045 0.248239 0.0025 1.00061 1.00085 2.5006 0.00499696 68 4 1 0.999999 
-0.326249 0.000432584 0.145201 0.0025 1.00033 1.00046 2.50033 0.00499834 69 4 1 1 
-0.323749 0.000228314 0.0816669 0.0025 1.00018 1.00024 2.50017 0.00499912 70 4 1 1 
-0.32125 0.00011631 0.0442013 0.0025 1.00009 1.00012 2.50009 0.00499955 71 4 1 1 
-0.31875 5.71837e-05 0.0230311 0.0025 1.00004 1.00006 2.50004 0.00499978 72 4 1 1 
-0.31625 2.71265e-05 0.0115543 0.0025 1.00002 1.00003 2.50002 0.0049999 73 4 1 1 
-0.31375 1.24114e-05 0.00558087 0.0025 1.00001 1.00001 2.50001 0.00499995 74 4 1 1 
-0.31125 5.4746e-06 0.0025948 0.0025 1 1.00001 2.5 0.00499998 75 4 1 1 
-0.30875 2.32666e-06 0.00116092 0.0025 1 1 2.5 0.00499999 76 4 1 1 
-0.30625 9.5205e-07 0.000499565 0.0025 1 1 2.5 0.005 77 4 1 1 
-0.30375 3.74766e-07 0.000206634 0.0025 1 1 2.5 0.005 78 4 1 1 
-0.30125 1.41771e-07 8.20894e-05 0.0025 1 1 2.5 0.005 79 4 1 1 
-0.29875 5.14756e-08 3.12907e-05 0.0025 1 1 2.5 0.005 80 4 1 1 
-0.29625 1.79119e-08 1.143e-05 0.0025 1 1 2.5 0.005 81 4 1 1 
-0.29375 5.96208e-09 3.99491e-06 0.0025 1 1 2.5 0.005 82 4 1 1 
-0.29125 1.89393e-09 1.33342e-06 0.0025 1 1 2.5 0.005 83 4 1 1 
-0.28875 5.72483e-10 4.23972e-07 0.0025 1 1 2.5 0.005 84 4 1 1 
-0.28625 1.64056e-10 1.28028e-07 0.0025 1 1 2.5 0.005 85 4 1 1 
-0.28375 4.43486e-11 3.6549e-08 0.0025 1 1 2.5 0.005 86 4 1 1 
-0.28125 1.12167e-11 9.82084e-09 0.0025 1 1 2.5 0.005 87 4 1 1 
-0.27875 2.64119e-12 2.45063e-09 0.0025 1 1 2.5 0.005 88 4 1 1 
-0.27625 5.60617e-13 5.89921e-10 0.0025 1 1 2.5 0.005 89 4 1 1 
-0.27375 1.13326e-13 1.08002e-10 0.0025 1 1 2.5 0.005 90 4 1 1 
-0.27125 1.14459e-14 2.7967e-11 0.0025 1 1 2.5 0.005 91 4 1 1 
-0.26875 1.54523e-16 -6.25278e-13 0.0025 1 1 2.5 0.005 92 5 1 1 
-0.26625 1.71286e-17 5.68434e-14 0.0025 1 1 2.5 0.005 93 5 1 1 
-0.26375 3.37801e-48 1.12104e-44 0.0025 1 1 2.5 0.005 94 5 1 1 
-0.26125 0 0 0.0025 1 1 2.5 0.005 95 5 1 1 
-0.25875 0 0 0.0025 1 1 2.5 0.005 96 5 1 1 
-0.25625 0 0 0.0025 1 1 2.5 0.005 97 5 1 1 
-0.25375 0 0 0.0025 1 1 2.5 0.005 98 5 1 1 
-0.25125 0 0 0.0025 1 1 2.5 0.005 99 5 1 1 
-0.24875 0 0 0.0025 1 1 2.5 0.005 100 5 1 1 
-0.24625 0 0 0.0025 1 1 2.5 0.005 101 5 1 1 
-0.24375 0 0 0.0025 1 1 2.5 0.005 102 5 1 1 
-0.24125 0 0 0.0025 1 1 2.5 0.005 103 5 1 1 
-0.23875 0 0 0.0025 1 1 2.5 0.005 104 5 1 1 
-0.23625 0 0 0.0025 1 1 2.5 0.005 105 5 1 1 
-0.23375 0 0 0.0025 1 1 2.5 0.005 106 5 1 1 
-0.23125 0 0 0.0025 1 1 2.5 0.005 107 5 1 1 
-0.22875 0 0 0.0025 1 1 2.5 0.005 108 5 1 1 
-0.22625 0 0 0.0025 1 1 2.5 0.005 109 5 1 1 
-0.22375 0 0 0.0025 1 1 2.5 0.005 110 5 1 1 
-0.22125 0 0 0.0025 1 1 2.5 0.005 111 5 1 1 
-0.21875 0 0 0.0025 1 1 2.5 0.005 112 5 1 1 
-0.21625 0 0 0.0025 1 1 2.5 0.005 113 5 1 1 
-0.21375 0 0 0.0025 1 1 2.5 0.005 114 5 1 1 
-0.21125 0 0 0.0025 1 1 2.5 0.005 115 5 1 1 
-0.20875 0 0 0.0025 1 1 2.5 0.005 116 5 1 1 
-0.20625 0 0 0.0025 1 1 2.5 0.005 117 5 1 1 
-0.20375 0 0 0.0025 1 1 2.5 0.005 118 5 1 1 
-0.20125 0 0 0.0025 1 1 2.5 0.005 119 5 1 1 
-0.19875 0 0 0.0025 1 1 2.5 0.005 120 5 1 1 
-0.19625 0 0 0.0025 1 1 2.5 0.005 121 5 1 1 
-0.19375 0 0 0.0025 1 1 2.5 0.005 122 5 1 1 
-0.19125 0 0 0.0025 1 1 2.5 0.005 123 5 1 1 
-0.18875 0 0 0.0025 1 1 2.5 0.005 124 5 1 1 
-0.18625 0 0 0.0025 1 1 2.5 0.005 125 5 1 1 
-0.18375 0 0 0.0025 1 1 2.5 0.005 126 5 1 1 
-0.18125 0 0 0.0025 1 1 2.5 0.005 127 5 1 1 
-0.17875 0 0 0.0025 1 1 2.5 0.005 128 5 1 1 
-0.17625 0 0 0.0025 1 1 2.5 0.005 129 5 1 1 
-0.17375 0 0 0.0025 1 1 2.5 0.005 130 5 1 1 
-0.17125 0 0 0.0025 1 1 2.5 0.005 131 5 1 1 
-0.16875 0 0 0.0025 1 1 2.5 0.005 132 5 1 1 
-0.16625 0 0 0.0025 1 1 2.5 0.005 133 5 1 1 
-0.16375 0 0 0.0025 1 1 2.5 0.005 134 5 1 1 
-0.16125 0 0 0.0025 1 1 2.5 0.005 135 5 1 1 
-0.15875 0 0 0.0025 1 1 2.5 0.005 136 5 1 1 
-0.15625 0 0 0.0025 1 1 2.5 0.005 137 5 1 1 
-0.15375 0 0 0.0025 1 1 2.5 0.005 138 5 1 1 
-0.15125 0 0 0.0025 1 1 2.5 0.005 139 5 1 1 
-0.14875 0 0 0.0025 1 1 2.5 0.005 140 5 1 1 
-0.14625 0 0 0.0025 1 1 2.5 0.005 141 5 1 1 
-0.14375 0 0 0.0025 1 1 2.5 0.005 142 5 1 1 
-0.14125 0 0 0.0025 1 1 2.5 0.005 143 5 1 1 
-0.13875 0 0 0.0025 1 1 2.5 0.005 144 5 1 1 
-0.13625 0 0 0.0025 1 1 2.5 0.005 145 5 1 1 
-0.13375 0 0 0.0025 1 1 2.5 0.005 146 5 1 1 
-0.13125 0 0 0.0025 1 1 2.5 0.005 147 5 1 1 
-0.12875 0 0 0.0025 1 1 2.5 0.005 148 5 1 1 
-0.12625 0 0 0.0025 1 1 2.5 0.005 149 5 1 1 
-0.12375 0 0 0.0025 1 1 2.5 0.005 150 5 1 1 
-0.12125 0 0 0.0025 1 1 2.5 0.005 151 5 1 1 
-0.11875 0 0 0.0025 1 1 2.5 0.005 152 5 1 1 
-0.11625 0 0 0.0025 1 1 2.5 0.005 153 5 1 1 
-0.11375 0 0 0.0025 1 1 2.5 0.005 154 5 1 1 
-0.11125 0 0 0.0025 1 1 2.5 0.005 155 5 1 1 
-0.10875 0 0 0.0025 1 1 2.5 0.005 156 5 1 1 
-0.10625 0 0 0.0025 1 1 2.5 0.005 157 5 1 1 
-0.10375 0 0 0.0025 1 1 2.5 0.005 158 5 1 1 
-0.10125 0 0 0.0025 1 1 2.5 0.005 159 5 1 1 
-0.09875 0 0 0.0025 1 1 2.5 0.005 160 5 1 1 
-0.09625 0 0 0.0025 1 1 2.5 0.005 161 5 1 1 
-0.09375 0 0 0.0025 1 1 2.5 0.005 162 5 1 1 
-0.09125 0 0 0.0025 1 1 2.5 0.005 163 5 1 1 
-0.08875 0 0 0.0025 1 1 2.5 0.005 164 5 1 1 
-0.08625 0 0 0.0025 1 1 2.5 0.005 165 5 1 1 
-0.08375 0 0 0.0025 1 1 2.5 0.005 166 5 1 1 
-0.08125 0 0 0.0025 1 1 2.5 0.005 167 5 1 1 
-0.07875 0 0 0.0025 1 1 2.5 0.005 168 5 1 1 
-0.07625 0 0 0.0025 1 1 2.5 0.005 169 5 1 1 
-0.07375 0 0 0.0025 1 1 2.5 0.005 170 5 1 1 
-0.07125 0 0 0.0025 1 1 2.5 0.005 171 5 1 1 
-0.06875 0 0 0.0025 1 1 2.5 0.005 172 5 1 1 
-0.06625 0 0 0.0025 1 1 2.5 0.005 173 5 1 1 
-0.06375 -1.18281e-46 -1.12104e-44 0.0025 1 1 2.5 0.005 174 5 1 1 
-0.06125 -1.3699e-16 -1.12104e-44 0.0025 1 1 2.5 0.005 175 5 1 1 
-0.05875 -2.73346e-16 0 0.0025 1 1 2.5 0.005 176 5 1 1 
-0.05625 -4.25862e-16 -5.68434e-14 0.0025 1 1 2.5 0.005 177 5 1 1 
-0.05375 -5.9436e-16 5.68434e-14 0.0025 1 1 2.5 0.005 178 5 1 1 
-0.05125 -8.29758e-16 -5.68434e-14 0.0025 1 1 2.5 0.005 179 5 1 1 
-0.04875 -1.04619e-15 0 0.0025 1 1 2.5 0.005 180 5 1 1 
-0.04625 -1.27693e-15 -2.24208e-44 0.0025 1 1 2.5 0.005 181 5 1 1 
-0.04375 -1.50368e-15 -2.24208e-44 0.0025 1 1 2.5 0.005 182 5 1 1 
-0.04125 -1.95968e-15 0 0.0025 1 1 2.5 0.005 183 5 1 1 
-0.03875 -2.27171e-15 3.9443e-29 0.0025 1 1 2.5 0.005 184 5 1 1 
-0.03625 -2.59646e-15 -5.68434e-14 0.0025 1 1 2.5 0.005 185 5 1 1 
-0.03375 -3.93791e-15 5.68434e-14 0.0025 1 1 2.5 0.005 186 4 1 1 
-0.03125 -8.65379e-16 -2.27374e-13 0.0025 1 1 2.5 0.005 187 4 1 1 
-0.02875 -2.38924e-15 -5.68434e-13 0.0025 1 1 2.5 0.005 188 4 1 1 
-0.02625 -1.89346e-15 9.09495e-13 0.0025 1 1 2.5 0.005 189 4 1 1 
-0.02375 -1.50222e-15 1.41995e-27 0.0025 1 1 2.5 0.005 190 4 1 1 
-0.02125 3.67389e-16 2.27374e-13 0.0025 1 1 2.5 0.005 191 5 1 1 
-0.01875 -3.00095e-16 -4.54747e-13 0.0025 1 1 2.5 0.005 192 5 1 1 
-0.01625 1.01476e-15 5.68434e-14 0.0025 1 1 2.5 0.005 193 4 1 1 
-0.01375 1.67219e-16 2.27374e-13 0.0025 1 1 2.5 0.005 194 3 1 1 
-0.01125 2.69417e-16 2.07076e-28 0.0025 1 1 2.5 0.005 195 4 1 1 
-0.00875 1.43291e-15 -5.68434e-13 0.0025 1 1 2.5 0.005 196 4 1 1 
-0.00625 4.15581e-16 3.97904e-13 0.0025 1 1 2.5 0.005 197 3 1 1 
-0.00375 -3.61674e-16 5.68434e-14 0.0025 1 1 2.5 0.005 198 5 1 1 
-0.00125 -7.29826e-17 1.13687e-13 0.0025 1 1 2.5 0.005 199 5 1 1 
0.00125 1.69817e-16 -2.27374e-13 0.0025 1 1 2.5 0.005 200 4 1 1 
0.00375 -1.13504e-16 -2.27374e-13 0.0025 1 1 2.5 0.005 201 4 1 1 
0.00625 -1.23462e-17 -5.68434e-14 0.0025 1 1 2.5 0.005 202 3 1 1 
0.00875 4.42195e-16 3.41061e-13 0.0025 1 1 2.5 0.005 203 4 1 1 
0.01125 3.96396e-16 -5.68434e-14 0.0025 1 1 2.5 0.005 204 3 1 1 
0.01375 1.59927e-15 -7.09975e-28 0.0025 1 1 2.5 0.005 205 4 1 1 
0.01625 5.16953e-16 -7.38964e-13 0.0025 1 1 2.5 0.005 206 3 1 1 
0.01875 2.5605e-15 6.25278e-13 0.0025 1 1 2.5 0.005 207 4 1 1 
0.02125 1.42863e-16 2.27374e-13 0.0025 1 1 2.5 0.005 208 5 1 1 
0.02375 5.25116e-16 -5.68434e-14 0.0025 1 1 2.5 0.005 209 5 1 1 
0.02625 2.62587e-15 -1.36424e-12 0.0025 1 1 2.5 0.005 210 4 1 1 
0.02875 -7.73316e-18 1.42109e-12 0.0025 1 1 2.5 0.005 211 3 1 1 
0.03125 3.22873e-15 3.29349e-27 0.0025 1 1 2.5 0.005 212 4 1 1 
0.03375 1.47075e-15 1.85382e-27 0.0025 1 1 2.5 0.005 213 5 1 1 
0.03625 1.38735e-15 -3.9443e-29 0.0025 1 1 2.5 0.005 214 5 1 1 
0.03875 1.26096e-15 -5.68434e-14 0.0025 1 1 2.5 0.005 215 5 1 1 
0.04125 1.11077e-15 5.68434e-14 0.0025 1 1 2.5 0.005 216 5 1 1 
0.04375 9.52274e-16 -5.68434e-14 0.0025 1 1 2.5 0.005 217 5 1 1 
0.04625 7.89643e-16 5.68434e-14 0.0025 1 1 2.5 0.005 218 5 1 1 
0.04875 6.24382e-16 -5.68434e-14 0.0025 1 1 2.5 0.005 219 5 1 1 
0.05125 4.5745e-16 5.68434e-14 0.0025 1 1 2.5 0.005 220 5 1 1 
0.05375 3.06223e-16 0 0.0025 1 1 2.5 0.005 221 5 1 1 
0.05625 1.36717e-16 1.12104e-44 0.0025 1 1 2.5 0.005 222 5 1 1 
0.05875 3.33786e-46 1.12104e-44 0.0025 1 1 2.5 0.005 223 5 1 1 
0.06125 0 0 0.0025 1 1 2.5 0.005 224 5 1 1 
0.06375 0 0 0.0025 1 1 2.5 0.005 225 5 1 1 
0.06625 0 0 0.0025 1 1 2.5 0.005 226 5 1 1 
0.06875 0 0 0.0025 1 1 2.5 0.005 227 5 1 1 
0.07125 0 0 0.0025 1 1 2.5 0.005 228 5 1 1 
0.07375 0 0 0.0025 1 1 2.5 0.005 229 5 1 1 
0.07625 0 0 0.0025 1 1 2.5 0.005 230 5 1 1 
0.07875 0 0 0.0025 1 1 2.5 0.005 231 5 1 1 
0.08125 0 0 0.0025 1 1 2.5 0.005 232 5 1 1 
0.08375 0 0 0.0025 1 1 2.5 0.005 233 5 1 1 
0.08625 0 0 0.0025 1 1 2.5 0.005 234 5 1 1 
0.08875 0 0 0.0025 1 1 2.5 0.005 235 5 1 1 
0.09125 -7.14065e-46 -1.12104e-44 0.0025 1 1 2.5 0.005 236 5 1 1 
0.09375 -3.35691e-17 -1.12104e-44 0.0025 1 1 2.5 0.005 237 5 1 1 
0.09625 -2.00225e-16 1.12104e-44 0.0025 1 1 2.5 0.005 238 5 1 1 
0.09875 -3.32868e-16 1.12104e-44 0.0025 1 1 2.5 0.005 239 5 1 1 
0.10125 1.03204e-15 0 0.0025 1 1 2.5 0.005 240 5 1 1 
0.10375 8.70541e-16 5.60519e-44 0.0025 1 1 2.5 0.005 241 5 1 1 
0.10625 2.21584e-15 -5.68434e-14 0.0025 1 1 2.5 0.005 242 5 1 1 
0.10875 5.26748e-16 5.60519e-44 0.0025 1 1 2.5 0.005 243 5 1 1 
0.11125 3.32752e-16 -5.68434e-14 0.0025 1 1 2.5 0.005 244 5 1 1 
0.11375 -2.06091e-15 4.25995e-43 0.0025 1 1 2.5 0.005 245 5 1 1 
0.11625 3.58176e-15 3.41061e-13 0.0025 1 1 2.5 0.005 246 5 1 1 
0.11875 4.55744e-16 3.41061e-13 0.0025 1 1 2.5 0.005 247 5 1 1 
0.12125 2.06417e-15 -7.14905e-27 0.0025 1 1 2.5 0.005 248 5 1 1 
0.12375 -7.21633e-16 -7.18849e-27 0.0025 1 1 2.5 0.005 249 4 1 1 
0.12625 7.21633e-16 7.18849e-27 0.0025 1 1 2.5 0.005 250 4 1 1 
0.12875 -2.06417e-15 7.14905e-27 0.0025 1 1 2.5 0.005 251 5 1 1 
0.13125 -4.55744e-16 -3.41061e-13 0.0025 1 1 2.5 0.005 252 5 1 1 
0.13375 -3.58176e-15 -3.41061e-13 0.0025 1 1 2.5 0.005 253 5 1 1 
0.13625 2.06091e-15 -4.25995e-43 0.0025 1 1 2.5 0.005 254 5 1 1 
0.13875 -3.32752e-16 5.68434e-14 0.0025 1 1 2.5 0.005 255 5 1 1 
0.14125 -5.26748e-16 -5.60519e-44 0.0025 1 1 2.5 0.005 256 5 1 1 
0.14375 -2.21584e-15 5.68434e-14 0.0025 1 1 2.5 0.005 257 5 1 1 
0.14625 -8.70541e-16 -5.60519e-44 0.0025 1 1 2.5 0.005 258 5 1 1 
0.14875 -1.03204e-15 0 0.0025 1 1 2.5 0.005 259 5 1 1 
0.15125 3.32868e-16 -1.12104e-44 0.0025 1 1 2.5 0.005 260 5 1 1 
0.15375 2.00225e-16 -1.12104e-44 0.0025 1 1 2.5 0.005 261 5 1 1 
0.15625 3.35691e-17 1.12104e-44 0.0025 1 1 2.5 0.005 262 5 1 1 
0.15875 7.14065e-46 1.12104e-44 0.0025 1 1 2.5 0.005 263 5 1 1 
0.16125 0 0 0.0025 1 1 2.5 0.005 264 5 1 1 
0.16375 0 0 0.0025 1 1 2.5 0.005 265 5 1 1 
0.16625 0 0 0.0025 1 1 2.5 0.005 266 5 1 1 
0.16875 0 0 0.0025 1 1 2.5 0.005 267 5 1 1 
0.17125 0 0 0.0025 1 1 2.5 0.005 268 5 1 1 
0.17375 0 0 0.0025 1 1 2.5 0.005 269 5 1 1 
0.17625 0 0 0.0025 1 1 2.5 0.005 270 5 1 1 
0.17875 0 0 0.0025 1 1 2.5 0.005 271 5 1 1 
0.18125 0 0 0.0025 1 1 2.5 0.005 272 5 1 1 
0.18375 0 0 0.0025 1 1 2.5 0.005 273 5 1 1 
0.18625 0 0 0.0025 1 1 2.5 0.005 274 5 1 1 
0.18875 0 0 0.0025 1 1 2.5 0.005 275 5 1 1 
0.19125 0 0 0.0025 1 1 2.5 0.005 276 5 1 1 
0.19375 0 0 0.0025 1 1 2.5 0.005 277 5 1 1 
0.19625 0 0 0.0025 1 1 2.5 0.005 278 5 1 1 
0.19875 0 0 0.0025 1 1 2.5 0.005 279 5 1 1 
0.20125 -4.34375e-46 -1.12104e-44 0.0025 1 1 2.5 0.005 280 5 1 1 
0.20375 -1.01886e-16 -1.12104e-44 0.0025 1 1 2.5 0.005 281 5 1 1 
0.20625 -2.71073e-16 0 0.0025 1 1 2.5 0.005 282 5 1 1 
0.20875 -4.39498e-16 0 0.0025 1 1 2.5 0.005 283 5 1 1 
0.21125 -6.06603e-16 1.12104e-44 0.0025 1 1 2.5 0.005 284 5 1 1 
0.21375 -7.72562e-16 1.12104e-44 0.0025 1 1 2.5 0.005 285 5 1 1 
0.21625 1.08011e-16 5.68434e-14 0.0025 1 1 2.5 0.005 286 5 1 1 
0.21875 -5.10243e-17 5.68434e-14 0.0025 1 1 2.5 0.005 287 5 1 1 
0.22125 2.80103e-15 -6.72623e-44 0.0025 1 1 2.5 0.005 288 5 1 1 
0.22375 1.80427e-15 1.13687e-13 0.0025 1 1 2.5 0.005 289 5 1 1 
0.22625 1.30294e-15 0 0.0025 1 1 2.5 0.005 290 5 1 1 
0.22875 -6.53005e-17 1.13687e-13 0.0025 1 1 2.5 0.005 291 5 1 1 
0.23125 2.6779e-15 -1.90577e-43 0.0025 1 1 2.5 0.005 292 5 1 1 
0.23375 7.01108e-17 2.46629e-43 0.0025 1 1 2.5 0.005 293 5 1 1 
0.23625 3.16318e-15 -1.7053e-13 0.0025 1 1 2.5 0.005 294 5 1 1 
0.23875 -7.76485e-16 -1.13687e-13 0.0025 1 1 2.5 0.005 295 5 1 1 
0.24125 5.1456e-15 -2.84217e-13 0.0025 1 1 2.5 0.005 296 5 1 1 
0.24375 2.92448e-16 -3.41061e-13 0.0025 1 1 2.5 0.005 297 5 1 1 
0.24625 4.09381e-15 7.95808e-13 0.0025 1 1 2.5 0.005 298 5 1 1 
0.24875 -1.17982e-15 9.66338e-13 0.0025 1 1 2.5 0.005 299 3 1 1 
0.25125 1.17982e-15 -9.66338e-13 0.0025 1 1 2.5 0.005 300 3 1 1 
0.25375 -4.09381e-15 -7.95808e-13 0.0025 1 1 2.5 0.005 301 5 1 1 
0.25625 -2.92448e-16 3.41061e-13 0.0025 1 1 2.5 0.005 302 5 1 1 
0.25875 -5.1456e-15 2.84217e-13 0.0025 1 1 2.5 0.005 303 5 1 1 
0.26125 7.76485e-16 1.13687e-13 0.0025 1 1 2.5 0.005 304 5 1 1 
0.26375 -3.16318e-15 1.7053e-13 0.0025 1 1 2.5 0.005 305 5 1 1 
0.26625 -1.04368e-16 -1.13687e-13 0.0025 1 1 2.5 0.005 306 5 1 1 
0.26875 -2.50684e-15 1.25056e-12 0.0025 1 1 2.5 0.005 307 5 1 1 
0.27125 -1.17408e-14 -2.83649e-11 0.0025 1 1 2.5 0.005 308 4 1 1 
0.27375 -1.14491e-13 -1.09594e-10 0.0025 1 1 2.5 0.005 309 4 1 1 
0.27625 -5.41981e-13 -5.37796e-10 0.0025 1 1 2.5 0.005 310 4 1 1 
0.27875 -2.44161e-12 -2.27271e-09 0.0025 1 1 2.5 0.005 311 4 1 1 
0.28125 -1.03714e-11 -8.91691e-09 0.0025 1 1 2.5 0.005 312 4 1 1 
