# Time [s]: 0.150336
# Columns: pos [m], vel [m/s], acc [m/s^2], mass [kg], dens [kg/m^3], pres [Pa], ene [J/kg], sml [m], id, neighbor, alpha, gradh, ...additional?
-0.92567 -3.33805 -2.87415 0.0025 0.0226417 0.00555271 0.61311 0.220832 0 5 1 1.04061 
-0.834672 -2.83384 -3.41717 0.0025 0.0393418 0.0107676 0.684236 0.127091 1 5 1 0.977963 
-0.782223 -2.54355 -3.73455 0.0025 0.0589888 0.0190363 0.806779 0.0847619 2 4 1 0.948787 
-0.745575 -2.34083 -3.95499 0.0025 0.0790772 0.0286949 0.907182 0.0632293 3 4 1 0.95226 
-0.717358 -2.18488 -4.12337 0.0025 0.0986317 0.0390857 0.990702 0.0506937 4 4 1 0.960749 
-0.694166 -2.05682 -4.261 0.0025 0.117246 0.0497815 1.06148 0.0426455 5 4 1 0.968563 
-0.674339 -1.94743 -4.37842 0.0025 0.135136 0.060726 1.12343 0.0369997 6 4 1 0.97463 
-0.656946 -1.85154 -4.48074 0.0025 0.15248 0.0719049 1.17893 0.0327912 7 4 1 0.979214 
-0.641406 -1.76593 -4.57191 0.0025 0.16938 0.0832986 1.22947 0.0295195 8 4 1 0.982706 
-0.62733 -1.68843 -4.65501 0.0025 0.18591 0.0948923 1.27605 0.0268947 9 4 1 0.985412 
-0.614443 -1.61751 -4.73026 0.0025 0.202123 0.106671 1.31939 0.0247374 10 4 1 0.987545 
-0.602542 -1.55206 -4.79799 0.0025 0.218056 0.118621 1.35999 0.0229299 11 4 1 0.989247 
-0.591475 -1.49125 -4.86291 0.0025 0.233739 0.13073 1.39826 0.0213914 12 4 1 0.990615 
-0.581121 -1.43433 -4.93037 0.0025 0.249208 0.142997 1.43452 0.0200635 13 4 1 0.99176 
-0.571387 -1.38084 -4.97706 0.0025 0.264473 0.155404 1.469 0.0189055 14 4 1 0.992702 
-0.562196 -1.33044 -5.03285 0.0025 0.279544 0.167938 1.5019 0.0178863 15 4 1 0.993487 
-0.553486 -1.28262 -5.08505 0.0025 0.294451 0.180604 1.5334 0.0169807 16 4 1 0.994147 
-0.545203 -1.23718 -5.14076 0.0025 0.309212 0.193402 1.56367 0.0161701 17 4 1 0.994711 
-0.537305 -1.19375 -5.19118 0.0025 0.323841 0.206328 1.59283 0.0154397 18 4 1 0.995198 
-0.529754 -1.15226 -5.24069 0.0025 0.338344 0.219377 1.62097 0.0147779 19 4 1 0.995632 
-0.522519 -1.1125 -5.27218 0.0025 0.352716 0.232529 1.64814 0.0141757 20 4 1 0.996 
-0.515571 -1.07434 -5.32552 0.0025 0.36697 0.245788 1.67445 0.0136251 21 4 1 0.996321 
-0.508888 -1.03759 -5.36936 0.0025 0.381128 0.259162 1.69998 0.013119 22 4 1 0.996613 
-0.502447 -1.00214 -5.4013 0.0025 0.395179 0.272634 1.72476 0.0126525 23 4 1 0.996864 
-0.496231 -0.967964 -5.45095 0.0025 0.409136 0.286207 1.74886 0.0122209 24 4 1 0.997089 
-0.490222 -0.934866 -5.4882 0.0025 0.423011 0.299885 1.77233 0.01182 25 4 1 0.997295 
-0.484407 -0.902832 -5.5191 0.0025 0.436795 0.313651 1.79519 0.011447 26 4 1 0.997473 
-0.478772 -0.871785 -5.56966 0.0025 0.450504 0.327517 1.81751 0.0110987 27 4 1 0.997639 
-0.473305 -0.841632 -5.59427 0.0025 0.464138 0.341475 1.8393 0.0107727 28 4 1 0.997788 
-0.467997 -0.81234 -5.63482 0.0025 0.477694 0.355517 1.8606 0.0104669 29 4 1 0.997922 
-0.462836 -0.783836 -5.66922 0.0025 0.491185 0.36965 1.88143 0.0101795 30 4 1 0.998046 
-0.457815 -0.756139 -5.70031 0.0025 0.504605 0.383865 1.90182 0.00990874 31 4 1 0.99816 
-0.452925 -0.729105 -5.72893 0.0025 0.517955 0.398155 1.92177 0.00965336 32 4 1 0.998264 
-0.44816 -0.702791 -5.76116 0.0025 0.531238 0.412522 1.94133 0.00941198 33 4 1 0.998358 
-0.443512 -0.677102 -5.79271 0.0025 0.54446 0.426965 1.96051 0.00918341 34 4 1 0.998448 
-0.438975 -0.652054 -5.81306 0.0025 0.557614 0.441475 1.97931 0.00896677 35 4 1 0.99853 
-0.434544 -0.627548 -5.84142 0.0025 0.570702 0.456048 1.99776 0.00876115 36 4 1 0.998604 
-0.430213 -0.603646 -5.872 0.0025 0.583733 0.470691 2.01587 0.00856556 37 4 1 0.998674 
-0.425977 -0.580249 -5.89218 0.0025 0.596704 0.485397 2.03367 0.00837936 38 4 1 0.99874 
-0.421832 -0.557383 -5.91435 0.0025 0.609611 0.500158 2.05114 0.00820195 39 4 1 0.998801 
-0.417774 -0.534971 -5.93238 0.0025 0.622454 0.51497 2.06831 0.00803273 40 4 1 0.998856 
-0.413798 -0.513056 -5.96687 0.0025 0.635245 0.529845 2.08521 0.00787098 41 4 1 0.998909 
-0.409902 -0.49158 -5.97574 0.0025 0.647981 0.544775 2.10182 0.00771628 42 4 1 0.998958 
-0.406081 -0.470508 -6.00479 0.0025 0.660657 0.559752 2.11817 0.00756822 43 4 1 0.999005 
-0.402333 -0.449873 -6.01274 0.0025 0.673276 0.574776 2.13426 0.00742637 44 4 1 0.999048 
-0.398654 -0.429624 -6.03964 0.0025 0.685839 0.589845 2.15009 0.00729034 45 4 1 0.999087 
-0.395042 -0.409763 -6.06542 0.0025 0.69836 0.604975 2.16571 0.00715963 46 4 1 0.999127 
-0.391494 -0.390241 -6.06537 0.0025 0.710821 0.62014 2.18108 0.00703412 47 4 1 0.999162 
-0.388007 -0.371082 -6.09544 0.0025 0.723227 0.635344 2.19622 0.00691346 48 4 1 0.999196 
-0.38458 -0.352274 -6.10063 0.0025 0.735582 0.65059 2.21115 0.00679733 49 4 1 0.999227 
-0.38121 -0.333786 -6.12917 0.0025 0.74789 0.665879 2.22587 0.00668548 50 4 1 0.999257 
-0.377894 -0.315617 -6.13896 0.0025 0.760152 0.681214 2.24039 0.00657763 51 4 1 0.999286 
-0.374631 -0.297736 -6.14902 0.0025 0.772359 0.696576 2.25471 0.00647367 52 4 1 0.999312 
-0.37142 -0.280141 -6.17067 0.0025 0.784519 0.711977 2.26884 0.00637333 53 4 1 0.999338 
-0.368258 -0.262873 -6.17958 0.0025 0.796632 0.727414 2.28279 0.00627642 54 4 1 0.999363 
-0.365143 -0.245851 -6.18659 0.0025 0.80869 0.742873 2.29654 0.00618284 55 4 1 0.999386 
-0.362075 -0.229127 -6.2017 0.0025 0.820696 0.758359 2.31012 0.00609239 56 4 1 0.999408 
-0.35905 -0.212651 -6.20275 0.0025 0.832649 0.773866 2.32351 0.00600493 57 4 1 0.999429 
-0.356069 -0.196428 -6.22009 0.0025 0.844552 0.789397 2.33674 0.0059203 58 4 1 0.999449 
-0.35313 -0.180479 -6.22895 0.0025 0.85641 0.804957 2.34981 0.00583832 59 4 1 0.999468 
-0.350231 -0.164759 -6.23036 0.0025 0.868213 0.82053 2.3627 0.00575895 60 4 1 0.999488 
-0.347371 -0.149278 -6.2283 0.0025 0.879953 0.836104 2.37543 0.00568212 61 4 1 0.999505 
-0.344548 -0.134052 -6.23385 0.0025 0.891633 0.851682 2.38799 0.00560769 62 4 1 0.999524 
-0.341763 -0.119069 -6.21734 0.0025 0.903244 0.867248 2.40038 0.0055356 63 4 1 0.999539 
-0.339012 -0.104318 -6.24027 0.0025 0.914798 0.882817 2.41261 0.00546569 64 4 1 0.999556 
-0.336297 -0.0897853 -6.23587 0.0025 0.926292 0.898389 2.42469 0.00539787 65 4 1 0.999583 
-0.333614 -0.0755819 -6.07022 0.0025 0.937593 0.913772 2.43648 0.0053328 66 4 1 0.99961 
-0.330964 -0.062002 -5.91677 0.0025 0.948632 0.928851 2.4479 0.00527075 67 4 1 0.999592 
-0.328343 -0.0483752 -6.44426 0.0025 0.959909 0.944335 2.45949 0.00520883 68 4 1 0.999554 
-0.325755 -0.0333829 -7.09672 0.0025 0.97186 0.960905 2.47175 0.00514477 69 4 1 0.999687 
-0.323198 -0.0195117 -5.18473 0.0025 0.982622 0.975901 2.4827 0.00508843 70 4 1 0.999887 
-0.320666 -0.01196 -1.97974 0.0025 0.989671 0.985562 2.48967 0.00505218 71 4 1 0.999831 
-0.318146 -0.00592567 -4.80482 0.0025 0.99665 0.995117 2.49655 0.00501681 72 4 1 0.999386 
-0.315649 0.0112982 -11.2532 0.0025 1.01019 1.01433 2.51028 0.00494957 73 4 1 0.99943 
-0.313196 0.0327768 -7.79958 0.0025 1.02562 1.03636 2.52573 0.00487512 74 4 1 0.999972 
-0.310774 0.0398622 -0.380841 0.0025 1.03266 1.04623 2.53255 0.00484184 75 3 1 1 
-0.308354 0.038538 1.11678 0.0025 1.03214 1.04535 2.53193 0.00484431 76 4 1 1 
-0.30593 0.0354752 1.64228 0.0025 1.0294 1.04145 2.52922 0.0048572 77 4 1 0.999982 
-0.303497 0.0315331 2.02292 0.0025 1.02591 1.0365 2.52578 0.00487371 78 4 1 0.999968 
-0.301056 0.0270588 2.23045 0.0025 1.02205 1.03103 2.52195 0.00489214 79 4 1 0.999959 
-0.298605 0.0223969 2.26887 0.0025 1.0181 1.02545 2.51804 0.00491109 80 4 1 0.999956 
-0.296145 0.0178757 2.15172 0.0025 1.01434 1.02014 2.5143 0.0049293 81 4 1 0.999958 
-0.293676 0.0137628 1.91699 0.0025 1.01097 1.01539 2.51094 0.00494574 82 4 1 0.999966 
-0.291199 0.0102319 1.61445 0.0025 1.00811 1.01136 2.50809 0.00495978 83 4 1 0.999975 
-0.288716 0.0073555 1.29245 0.0025 1.0058 1.00812 2.50578 0.00497116 84 4 1 0.999983 
-0.286228 0.00512095 0.988509 0.0025 1.00402 1.00562 2.50401 0.00497997 85 4 1 0.99999 
-0.283736 0.00345797 0.725483 0.0025 1.00271 1.00378 2.5027 0.00498651 86 4 1 0.999994 
-0.281241 0.00226771 0.512792 0.0025 1.00177 1.00247 2.50176 0.00499117 87 4 1 0.999997 
-0.278745 0.00144579 0.35009 0.0025 1.00112 1.00157 2.50112 0.00499438 88 4 1 0.999999 
-0.276247 0.000896844 0.231362 0.0025 1.0007 1.00097 2.50069 0.00499652 89 4 1 0.999999 
-0.273748 0.000541577 0.148243 0.0025 1.00042 1.00058 2.50042 0.00499791 90 4 1 1 
-0.271249 0.000318486 0.0921971 0.0025 1.00025 1.00034 2.50024 0.00499877 91 4 1 1 
-0.268749 0.000182432 0.0557001 0.0025 1.00014 1.0002 2.50014 0.0049993 92 4 1 1 
-0.26625 0.000101797 0.0327052 0.0025 1.00008 1.00011 2.50008 0.00499961 93 4 1 1 
-0.26375 5.53354e-05 0.01867 0.0025 1.00004 1.00006 2.50004 0.00499979 94 4 1 1 
-0.26125 2.93012e-05 0.0103641 0.0025 1.00002 1.00003 2.50002 0.00499989 95 4 1 1 
-0.25875 1.51127e-05 0.00559529 0.0025 1.00001 1.00002 2.50001 0.00499994 96 4 1 1 
-0.25625 7.59143e-06 0.0029379 0.0025 1.00001 1.00001 2.50001 0.00499997 97 4 1 1 
-0.25375 3.71326e-06 0.00150026 0.0025 1 1 2.5 0.00499999 98 4 1 1 
-0.25125 1.76828e-06 0.000745039 0.0025 1 1 2.5 0.00499999 99 4 1 1 
-0.24875 8.19612e-07 0.000359771 0.0025 1 1 2.5 0.005 100 4 1 1 
-0.24625 3.69664e-07 0.000168902 0.0025 1 1 2.5 0.005 101 4 1 1 
-0.24375 1.62184e-07 7.70749e-05 0.0025 1 1 2.5 0.005 102 4 1 1 
-0.24125 6.91906e-08 3.41775e-05 0.0025 1 1 2.5 0.005 103 4 1 1 
-0.23875 2.86905e-08 1.47223e-05 0.0025 1 1 2.5 0.005 104 4 1 1 
-0.23625 1.15575e-08 6.15804e-06 0.0025 1 1 2.5 0.005 105 4 1 1 
-0.23375 4.52033e-09 2.50001e-06 0.0025 1 1 2.5 0.005 106 4 1 1 
-0.23125 1.7154e-09 9.84519e-07 0.0025 1 1 2.5 0.005 107 4 1 1 
-0.22875 6.31126e-10 3.75832e-07 0.0025 1 1 2.5 0.005 108 4 1 1 
-0.22625 2.24913e-10 1.38978e-07 0.0025 1 1 2.5 0.005 109 4 1 1 
-0.22375 7.75404e-11 4.97295e-08 0.0025 1 1 2.5 0.005 110 4 1 1 
-0.22125 2.58568e-11 1.72033e-08 0.0025 1 1 2.5 0.005 111 4 1 1 
-0.21875 8.29855e-12 5.74283e-09 0.0025 1 1 2.5 0.005 112 4 1 1 
-0.21625 2.57728e-12 1.84917e-09 0.0025 1 1 2.5 0.005 113 4 1 1 
-0.21375 7.54895e-13 5.73039e-10 0.0025 1 1 2.5 0.005 114 4 1 1 
-0.21125 2.2336e-13 1.67574e-10 0.0025 1 1 2.5 0.005 115 4 1 1 
-0.20875 6.13903e-14 5.24665e-11 0.0025 1 1 2.5 0.005 116 4 1 1 
-0.20625 7.86248e-15 1.48361e-11 0.0025 1 1 2.5 0.005 117 4 1 1 
-0.20375 4.14679e-16 2.65846e-26 0.0025 1 1 2.5 0.005 118 5 1 1 
-0.20125 6.91313e-17 2.27374e-13 0.0025 1 1 2.5 0.005 119 5 1 1 
-0.19875 1.36338e-47 4.48416e-44 0.0025 1 1 2.5 0.005 120 5 1 1 
-0.19625 0 0 0.0025 1 1 2.5 0.005 121 5 1 1 
-0.19375 0 0 0.0025 1 1 2.5 0.005 122 5 1 1 
-0.19125 0 0 0.0025 1 1 2.5 0.005 123 5 1 1 
-0.18875 0 0 0.0025 1 1 2.5 0.005 124 5 1 1 
-0.18625 0 0 0.0025 1 1 2.5 0.005 125 5 1 1 
-0.18375 0 0 0.0025 1 1 2.5 0.005 126 5 1 1 
-0.18125 0 0 0.0025 1 1 2.5 0.005 127 5 1 1 
-0.17875 0 0 0.0025 1 1 2.5 0.005 128 5 1 1 
-0.17625 0 0 0.0025 1 1 2.5 0.005 129 5 1 1 
-0.17375 0 0 0.0025 1 1 2.5 0.005 130 5 1 1 
-0.17125 0 0 0.0025 1 1 2.5 0.005 131 5 1 1 
-0.16875 0 0 0.0025 1 1 2.5 0.005 132 5 1 1 
-0.16625 0 0 0.0025 1 1 2.5 0.005 133 5 1 1 
-0.16375 0 0 0.0025 1 1 2.5 0.005 134 5 1 1 
-0.16125 0 0 0.0025 1 1 2.5 0.005 135 5 1 1 
-0.15875 0 0 0.0025 1 1 2.5 0.005 136 5 1 1 
-0.15625 0 0 0.0025 1 1 2.5 0.005 137 5 1 1 
-0.15375 0 0 0.0025 1 1 2.5 0.005 138 5 1 1 
-0.15125 0 0 0.0025 1 1 2.5 0.005 139 5 1 1 
-0.14875 0 0 0.0025 1 1 2.5 0.005 140 5 1 1 
-0.14625 0 0 0.0025 1 1 2.5 0.005 141 5 1 1 
-0.14375 0 0 0.0025 1 1 2.5 0.005 142 5 1 1 
-0.14125 0 0 0.0025 1 1 2.5 0.005 143 5 1 1 
-0.13875 0 0 0.0025 1 1 2.5 0.005 144 5 1 1 
-0.13625 0 0 0.0025 1 1 2.5 0.005 145 5 1 1 
-0.13375 0 0 0.0025 1 1 2.5 0.005 146 5 1 1 
-0.13125 0 0 0.0025 1 1 2.5 0.005 147 5 1 1 
-0.12875 0 0 0.0025 1 1 2.5 0.005 148 5 1 1 
-0.12625 0 0 0.0025 1 1 2.5 0.005 149 5 1 1 
-0.12375 0 0 0.0025 1 1 2.5 0.005 150 5 1 1 
-0.12125 0 0 0.0025 1 1 2.5 0.005 151 5 1 1 
-0.11875 0 0 0.0025 1 1 2.5 0.005 152 5 1 1 
-0.11625 0 0 0.0025 1 1 2.5 0.005 153 5 1 1 
-0.11375 0 0 0.0025 1 1 2.5 0.005 154 5 1 1 
-0.11125 0 0 0.0025 1 1 2.5 0.005 155 5 1 1 
-0.10875 0 0 0.0025 1 1 2.5 0.005 156 5 1 1 
-0.10625 0 0 0.0025 1 1 2.5 0.005 157 5 1 1 
-0.10375 0 0 0.0025 1 1 2.5 0.005 158 5 1 1 
-0.10125 0 0 0.0025 1 1 2.5 0.005 159 5 1 1 
-0.09875 0 0 0.0025 1 1 2.5 0.005 160 5 1 1 
-0.09625 0 0 0.0025 1 1 2.5 0.005 161 5 1 1 
-0.09375 0 0 0.0025 1 1 2.5 0.005 162 5 1 1 
-0.09125 0 0 0.0025 1 1 2.5 0.005 163 5 1 1 
-0.08875 0 0 0.0025 1 1 2.5 0.005 164 5 1 1 
-0.08625 0 0 0.0025 1 1 2.5 0.005 165 5 1 1 
-0.08375 0 0 0.0025 1 1 2.5 0.005 166 5 1 1 
-0.08125 0 0 0.0025 1 1 2.5 0.005 167 5 1 1 
-0.07875 0 0 0.0025 1 1 2.5 0.005 168 5 1 1 
-0.07625 -2.38519e-47 -1.12104e-44 0.0025 1 1 2.5 0.005 169 5 1 1 
-0.07375 -1.20943e-16 -5.68434e-14 0.0025 1 1 2.5 0.005 170 5 1 1 
-0.07125 -5.52809e-16 -2.27374e-13 0.0025 1 1 2.5 0.005 171 5 1 1 
-0.06875 -1.64094e-15 -5.11591e-13 0.0025 1 1 2.5 0.005 172 5 1 1 
-0.06625 -2.83217e-15 -2.27374e-13 0.0025 1 1 2.5 0.005 173 5 1 1 
-0.06375 -6.71648e-15 -1.7053e-13 0.0025 1 1 2.5 0.005 174 3 1 1 
-0.06125 3.37466e-15 8.52651e-13 0.0025 1 1 2.5 0.005 175 3 1 1 
-0.05875 -5.12285e-16 2.27374e-13 0.0025 1 1 2.5 0.005 176 5 1 1 
-0.05625 9.4156e-16 1.13687e-13 0.0025 1 1 2.5 0.005 177 5 1 1 
-0.05375 4.10836e-16 1.7053e-13 0.0025 1 1 2.5 0.005 178 5 1 1 
-0.05125 -2.08019e-16 -5.68434e-14 0.0025 1 1 2.5 0.005 179 5 1 1 
-0.04875 1.98231e-16 -6.72623e-44 0.0025 1 1 2.5 0.005 180 5 1 1 
-0.04625 -3.77854e-16 -1.13687e-13 0.0025 1 1 2.5 0.005 181 5 1 1 
-0.04375 -1.29869e-15 -2.24208e-44 0.0025 1 1 2.5 0.005 182 5 1 1 
-0.04125 -2.27302e-15 -1.13687e-13 0.0025 1 1 2.5 0.005 183 5 1 1 
-0.03875 -3.9301e-15 -1.13687e-13 0.0025 1 1 2.5 0.005 184 5 1 1 
-0.03625 -3.2089e-16 1.7053e-13 0.0025 1 1 2.5 0.005 185 5 1 1 
-0.03375 -3.55918e-15 1.7053e-13 0.0025 1 1 2.5 0.005 186 4 1 1 
-0.03125 -4.16818e-16 -1.13687e-13 0.0025 1 1 2.5 0.005 187 3 1 1 
-0.02875 -2.85873e-15 -1.7053e-13 0.0025 1 1 2.5 0.005 188 4 1 1 
-0.02625 1.19272e-15 2.84217e-13 0.0025 1 1 2.5 0.005 189 4 1 1 
-0.02375 -1.9043e-16 2.27374e-13 0.0025 1 1 2.5 0.005 190 5 1 1 
-0.02125 -1.84366e-15 -9.09495e-13 0.0025 1 1 2.5 0.005 191 4 1 1 
-0.01875 1.91695e-15 2.27374e-13 0.0025 1 1 2.5 0.005 192 4 1 1 
-0.01625 1.33281e-16 1.13687e-13 0.0025 1 1 2.5 0.005 193 4 1 1 
-0.01375 -6.1167e-16 3.97904e-13 0.0025 1 1 2.5 0.005 194 3 1 1 
-0.01125 -9.2097e-16 -1.7053e-13 0.0025 1 1 2.5 0.005 195 4 1 1 
-0.00875 -9.38745e-16 4.54747e-13 0.0025 1 1 2.5 0.005 196 5 1 1 
-0.00625 -8.78165e-16 -5.68434e-13 0.0025 1 1 2.5 0.005 197 5 1 1 
-0.00375 -6.5664e-16 3.41061e-13 0.0025 1 1 2.5 0.005 198 4 1 1 
-0.00125 -6.26272e-16 -3.41061e-13 0.0025 1 1 2.5 0.005 199 5 1 1 
0.00125 1.70977e-16 -1.13687e-13 0.0025 1 1 2.5 0.005 200 3 1 1 
0.00375 5.25737e-16 1.7053e-13 0.0025 1 1 2.5 0.005 201 4 1 1 
0.00625 6.4246e-16 5.11591e-13 0.0025 1 1 2.5 0.005 202 5 1 1 
0.00875 1.09754e-15 -5.68434e-13 0.0025 1 1 2.5 0.005 203 5 1 1 
0.01125 7.91518e-16 2.27374e-13 0.0025 1 1 2.5 0.005 204 4 1 1 
0.01375 1.26306e-15 -9.09495e-13 0.0025 1 1 2.5 0.005 205 4 1 1 
0.01625 1.85482e-16 9.09495e-13 0.0025 1 1 2.5 0.005 206 3 1 1 
0.01875 4.10943e-16 1.13687e-13 0.0025 1 1 2.5 0.005 207 4 1 1 
0.02125 -7.63386e-16 -6.82121e-13 0.0025 1 1 2.5 0.005 208 5 1 1 
0.02375 2.74947e-15 3.41061e-13 0.0025 1 1 2.5 0.005 209 5 1 1 
0.02625 1.57707e-15 -5.68434e-14 0.0025 1 1 2.5 0.005 210 4 1 1 
0.02875 2.50415e-15 5.68434e-14 0.0025 1 1 2.5 0.005 211 3 1 1 
0.03125 1.19964e-15 1.13687e-13 0.0025 1 1 2.5 0.005 212 4 1 1 
0.03375 -3.76426e-16 1.7053e-13 0.0025 1 1 2.5 0.005 213 5 1 1 
0.03625 -2.32636e-15 6.25278e-13 0.0025 1 1 2.5 0.005 214 5 1 1 
0.03875 1.3615e-15 -2.55795e-12 0.0025 1 1 2.5 0.005 215 3 1 1 
0.04125 4.7197e-15 1.02318e-12 0.0025 1 1 2.5 0.005 216 3 1 1 
0.04375 1.71073e-15 5.11591e-13 0.0025 1 1 2.5 0.005 217 5 1 1 
0.04625 6.51342e-16 2.84217e-13 0.0025 1 1 2.5 0.005 218 5 1 1 
0.04875 -1.04747e-16 5.68434e-14 0.0025 1 1 2.5 0.005 219 5 1 1 
0.05125 -5.63409e-16 -2.27374e-13 0.0025 1 1 2.5 0.005 220 5 1 1 
0.05375 6.47491e-16 -3.41061e-13 0.0025 1 1 2.5 0.005 221 5 1 1 
0.05625 -5.92281e-16 7.95808e-13 0.0025 1 1 2.5 0.005 222 4 1 1 
0.05875 4.90358e-15 -3.06954e-12 0.0025 1 1 2.5 0.005 223 3 1 1 
0.06125 2.76408e-15 2.6148e-12 0.0025 1 1 2.5 0.005 224 3 1 1 
0.06375 7.77352e-16 -5.68434e-14 0.0025 1 1 2.5 0.005 225 5 1 1 
0.06625 1.90042e-16 1.7053e-13 0.0025 1 1 2.5 0.005 226 5 1 1 
0.06875 5.11093e-47 3.36312e-44 0.0025 1 1 2.5 0.005 227 5 1 1 
0.07125 0 0 0.0025 1 1 2.5 0.005 228 5 1 1 
0.07375 0 0 0.0025 1 1 2.5 0.005 229 5 1 1 
0.07625 0 0 0.0025 1 1 2.5 0.005 230 5 1 1 
0.07875 0 0 0.0025 1 1 2.5 0.005 231 5 1 1 
0.08125 0 0 0.0025 1 1 2.5 0.005 232 5 1 1 
0.08375 0 0 0.0025 1 1 2.5 0.005 233 5 1 1 
0.08625 0 0 0.0025 1 1 2.5 0.005 234 5 1 1 
0.08875 0 0 0.0025 1 1 2.5 0.005 235 5 1 1 
0.09125 -1.11132e-45 0 0.0025 1 1 2.5 0.005 236 5 1 1 
0.09375 -3.35691e-17 0 0.0025 1 1 2.5 0.005 237 5 1 1 
0.09625 5.88775e-17 5.68434e-14 0.0025 1 1 2.5 0.005 238 5 1 1 
0.09875 -1.08306e-16 5.68434e-14 0.0025 1 1 2.5 0.005 239 5 1 1 
0.10125 2.81042e-15 1.7053e-13 0.0025 1 1 2.5 0.005 240 5 1 1 
0.10375 2.13109e-15 1.7053e-13 0.0025 1 1 2.5 0.005 241 5 1 1 
0.10625 4.99189e-15 -6.72623e-44 0.0025 1 1 2.5 0.005 242 5 1 1 
0.10875 3.32086e-15 1.79366e-43 0.0025 1 1 2.5 0.005 243 5 1 1 
0.11125 6.43928e-15 -2.8026e-43 0.0025 1 1 2.5 0.005 244 5 1 1 
0.11375 4.27073e-15 8.96831e-44 0.0025 1 1 2.5 0.005 245 5 1 1 
0.11625 3.87405e-15 5.68434e-14 0.0025 1 1 2.5 0.005 246 5 1 1 
0.11875 1.3669e-15 5.68434e-14 0.0025 1 1 2.5 0.005 247 5 1 1 
0.12125 2.06417e-15 -7.14905e-27 0.0025 1 1 2.5 0.005 248 5 1 1 
0.12375 -7.21633e-16 -7.18849e-27 0.0025 1 1 2.5 0.005 249 4 1 1 
0.12625 7.21633e-16 7.18849e-27 0.0025 1 1 2.5 0.005 250 4 1 1 
0.12875 -2.06417e-15 7.14905e-27 0.0025 1 1 2.5 0.005 251 5 1 1 
0.13125 -1.3669e-15 -5.68434e-14 0.0025 1 1 2.5 0.005 252 5 1 1 
0.13375 -3.87405e-15 -5.68434e-14 0.0025 1 1 2.5 0.005 253 5 1 1 
0.13625 -4.27073e-15 -8.96831e-44 0.0025 1 1 2.5 0.005 254 5 1 1 
0.13875 -6.43928e-15 2.8026e-43 0.0025 1 1 2.5 0.005 255 5 1 1 
0.14125 -3.32086e-15 -1.79366e-43 0.0025 1 1 2.5 0.005 256 5 1 1 
0.14375 -4.99189e-15 6.72623e-44 0.0025 1 1 2.5 0.005 257 5 1 1 
0.14625 -2.13109e-15 -1.7053e-13 0.0025 1 1 2.5 0.005 258 5 1 1 
0.14875 -2.81042e-15 -1.7053e-13 0.0025 1 1 2.5 0.005 259 5 1 1 
0.15125 1.08306e-16 -5.68434e-14 0.0025 1 1 2.5 0.005 260 5 1 1 
0.15375 -5.88775e-17 -5.68434e-14 0.0025 1 1 2.5 0.005 261 5 1 1 
0.15625 3.35691e-17 0 0.0025 1 1 2.5 0.005 262 5 1 1 
0.15875 1.11132e-45 0 0.0025 1 1 2.5 0.005 263 5 1 1 
0.16125 0 0 0.0025 1 1 2.5 0.005 264 5 1 1 
0.16375 0 0 0.0025 1 1 2.5 0.005 265 5 1 1 
0.16625 0 0 0.0025 1 1 2.5 0.005 266 5 1 1 
0.16875 0 0 0.0025 1 1 2.5 0.005 267 5 1 1 
0.17125 0 0 0.0025 1 1 2.5 0.005 268 5 1 1 
0.17375 0 0 0.0025 1 1 2.5 0.005 269 5 1 1 
0.17625 0 0 0.0025 1 1 2.5 0.005 270 5 1 1 
0.17875 0 0 0.0025 1 1 2.5 0.005 271 5 1 1 
0.18125 0 0 0.0025 1 1 2.5 0.005 272 5 1 1 
0.18375 0 0 0.0025 1 1 2.5 0.005 273 5 1 1 
0.18625 0 0 0.0025 1 1 2.5 0.005 274 5 1 1 
0.18875 0 0 0.0025 1 1 2.5 0.005 275 5 1 1 
0.19125 0 0 0.0025 1 1 2.5 0.005 276 5 1 1 
0.19375 0 0 0.0025 1 1 2.5 0.005 277 5 1 1 
0.19625 0 0 0.0025 1 1 2.5 0.005 278 5 1 1 
0.19875 -1.70388e-47 -3.36312e-44 0.0025 1 1 2.5 0.005 279 5 1 1 
0.20125 -8.63971e-17 -1.7053e-13 0.0025 1 1 2.5 0.005 280 5 1 1 
0.20375 -4.12879e-16 2.27374e-13 0.0025 1 1 2.5 0.005 281 5 1 1 
0.20625 -7.2351e-15 -1.49498e-11 0.0025 1 1 2.5 0.005 282 4 1 1 
0.20875 -5.50043e-14 -4.01315e-11 0.0025 1 1 2.5 0.005 283 4 1 1 
0.21125 -1.90368e-13 -1.59332e-10 0.0025 1 1 2.5 0.005 284 4 1 1 
0.21375 -6.80626e-13 -4.97607e-10 0.0025 1 1 2.5 0.005 285 4 1 1 
0.21625 -2.25509e-12 -1.61384e-09 0.0025 1 1 2.5 0.005 286 4 1 1 
0.21875 -7.2371e-12 -4.95436e-09 0.0025 1 1 2.5 0.005 287 4 1 1 
0.22125 -2.23537e-11 -1.47773e-08 0.0025 1 1 2.5 0.005 288 4 1 1 
0.22375 -6.65902e-11 -4.23649e-08 0.0025 1 1 2.5 0.005 289 4 1 1 
0.22625 -1.918e-10 -1.17634e-07 0.0025 1 1 2.5 0.005 290 4 1 1 
0.22875 -5.34678e-10 -3.16036e-07 0.0025 1 1 2.5 0.005 291 4 1 1 
0.23125 -1.44417e-09 -8.22755e-07 0.0025 1 1 2.5 0.005 292 4 1 1 
