# Time [s]: 0.158244
# Columns: pos [m], vel [m/s], acc [m/s^2], mass [kg], dens [kg/m^3], pres [Pa], ene [J/kg], sml [m], id, neighbor, alpha, gradh, ...additional?
-0.952153 -3.3601 -2.70725 0.0025 0.0216953 0.00523052 0.602728 0.230465 0 5 1 1.04057 
-0.857185 -2.86007 -3.21936 0.0025 0.0376986 0.0101433 0.672658 0.132631 1 5 1 0.977971 
-0.80245 -2.57221 -3.51835 0.0025 0.0565264 0.0179332 0.793135 0.0884543 2 4 1 0.948783 
-0.764207 -2.37118 -3.72647 0.0025 0.0757785 0.0270331 0.89185 0.0659818 3 4 1 0.952253 
-0.734761 -2.21653 -3.88555 0.0025 0.0945204 0.036824 0.973973 0.0528986 4 4 1 0.960739 
-0.710562 -2.08953 -4.01554 0.0025 0.112362 0.0469031 1.04357 0.0444989 5 4 1 0.968553 
-0.689873 -1.98104 -4.12643 0.0025 0.129512 0.0572173 1.10449 0.0386065 6 4 1 0.974621 
-0.671724 -1.88594 -4.22305 0.0025 0.146138 0.0677531 1.15906 0.0342143 7 4 1 0.979206 
-0.655511 -1.80103 -4.30915 0.0025 0.162339 0.0784916 1.20877 0.0307998 8 4 1 0.982699 
-0.640824 -1.72416 -4.38768 0.0025 0.178187 0.0894194 1.25458 0.0280605 9 4 1 0.985405 
-0.627379 -1.65382 -4.45889 0.0025 0.19373 0.100522 1.2972 0.0258091 10 4 1 0.987536 
-0.614962 -1.5889 -4.52429 0.0025 0.209007 0.111788 1.33713 0.0239226 11 4 1 0.989244 
-0.603416 -1.52857 -4.58269 0.0025 0.224044 0.123203 1.37476 0.022317 12 4 1 0.990619 
-0.592614 -1.47217 -4.64348 0.0025 0.23887 0.134761 1.41041 0.0209319 13 4 1 0.991744 
-0.582459 -1.41909 -4.70089 0.0025 0.25351 0.146461 1.44433 0.0197231 14 4 1 0.9927 
-0.572871 -1.36906 -4.7404 0.0025 0.267966 0.158282 1.4767 0.0186591 15 4 1 0.993485 
-0.563784 -1.32167 -4.79568 0.0025 0.282256 0.170219 1.50768 0.0177144 16 4 1 0.994155 
-0.555143 -1.2766 -4.83654 0.0025 0.296398 0.182275 1.53742 0.0168692 17 4 1 0.994715 
-0.546903 -1.23361 -4.89264 0.0025 0.310411 0.19445 1.56607 0.0161077 18 4 1 0.995203 
-0.539026 -1.19247 -4.9339 0.0025 0.324308 0.206742 1.59372 0.0154175 19 4 1 0.995625 
-0.531478 -1.15301 -4.98043 0.0025 0.338089 0.219143 1.62046 0.014789 20 4 1 0.996003 
-0.52423 -1.11518 -5.01064 0.0025 0.351755 0.23164 1.64632 0.0142145 21 4 1 0.99633 
-0.517257 -1.07876 -5.05148 0.0025 0.365308 0.244228 1.67139 0.0136871 22 4 1 0.99661 
-0.510537 -1.04365 -5.10023 0.0025 0.378775 0.256923 1.69576 0.0132004 23 4 1 0.996868 
-0.504052 -1.00974 -5.12545 0.0025 0.39215 0.269711 1.71944 0.0127502 24 4 1 0.997095 
-0.497783 -0.976973 -5.16593 0.0025 0.405431 0.282583 1.74249 0.0123325 25 4 1 0.997293 
-0.491715 -0.945229 -5.20888 0.0025 0.418642 0.295555 1.76497 0.0119434 26 4 1 0.99748 
-0.485836 -0.914451 -5.23009 0.0025 0.431769 0.308609 1.78689 0.0115803 27 4 1 0.997642 
-0.480132 -0.884587 -5.27433 0.0025 0.444821 0.321745 1.80829 0.0112405 28 4 1 0.997789 
-0.474593 -0.855559 -5.30615 0.0025 0.45781 0.334973 1.82922 0.0109216 29 4 1 0.997926 
-0.469208 -0.82735 -5.33373 0.0025 0.470727 0.348277 1.84968 0.0106219 30 4 1 0.998048 
-0.463969 -0.799843 -5.37 0.0025 0.483579 0.36166 1.86971 0.0103396 31 4 1 0.998161 
-0.458866 -0.773097 -5.3963 0.0025 0.496369 0.375121 1.88933 0.0100731 32 4 1 0.998264 
-0.453894 -0.746996 -5.42871 0.0025 0.509097 0.388654 1.90855 0.0098213 33 4 1 0.998361 
-0.449043 -0.721534 -5.44712 0.0025 0.52176 0.402253 1.92739 0.00958295 34 4 1 0.998446 
-0.444309 -0.696678 -5.48771 0.0025 0.534366 0.415924 1.94588 0.00935687 35 4 1 0.998529 
-0.439685 -0.672417 -5.50286 0.0025 0.546918 0.429663 1.96403 0.00914215 36 4 1 0.998604 
-0.435166 -0.648685 -5.53182 0.0025 0.559406 0.443459 1.98184 0.00893806 37 4 1 0.998675 
-0.430746 -0.625482 -5.54862 0.0025 0.571835 0.457313 1.99933 0.00874378 38 4 1 0.998737 
-0.426421 -0.602782 -5.58436 0.0025 0.584213 0.47123 2.01652 0.00855852 39 4 1 0.998799 
-0.422186 -0.580577 -5.59438 0.0025 0.596537 0.485205 2.03343 0.0083817 40 4 1 0.998855 
-0.418038 -0.5588 -5.61925 0.0025 0.608801 0.499225 2.05004 0.00821287 41 4 1 0.998908 
-0.413973 -0.537496 -5.63944 0.0025 0.621013 0.5133 2.06639 0.00805136 42 4 1 0.998956 
-0.409986 -0.516589 -5.66036 0.0025 0.633175 0.527426 2.08247 0.00789672 43 4 1 0.999002 
-0.406075 -0.496119 -5.68106 0.0025 0.645287 0.541604 2.09831 0.00774849 44 4 1 0.999046 
-0.402237 -0.475993 -5.69356 0.0025 0.657345 0.555824 2.11391 0.00760636 45 4 1 0.999086 
-0.398468 -0.456261 -5.71783 0.0025 0.669353 0.57009 2.12926 0.0074699 46 4 1 0.999124 
-0.394766 -0.436912 -5.72667 0.0025 0.681311 0.584398 2.14439 0.0073388 47 4 1 0.999159 
-0.391129 -0.417886 -5.75775 0.0025 0.693225 0.598754 2.15931 0.00721267 48 4 1 0.999193 
-0.387553 -0.399198 -5.7608 0.0025 0.705092 0.613152 2.17402 0.00709127 49 4 1 0.999225 
-0.384037 -0.380812 -5.78117 0.0025 0.716907 0.627582 2.18852 0.00697441 50 4 1 0.999254 
-0.380578 -0.362769 -5.79811 0.0025 0.728679 0.642057 2.20282 0.00686173 51 4 1 0.999283 
-0.377175 -0.345028 -5.80756 0.0025 0.740404 0.656565 2.21692 0.00675307 52 4 1 0.99931 
-0.373824 -0.327548 -5.82687 0.0025 0.752083 0.67111 2.23084 0.0066482 53 4 1 0.999335 
-0.370526 -0.310376 -5.83774 0.0025 0.76372 0.685691 2.24458 0.0065469 54 4 1 0.999359 
-0.367277 -0.293438 -5.85348 0.0025 0.775314 0.700307 2.25815 0.006449 55 4 1 0.999381 
-0.364077 -0.276804 -5.87042 0.0025 0.786868 0.714961 2.27155 0.0063543 56 4 1 0.999404 
-0.360923 -0.260413 -5.872 0.0025 0.798374 0.729639 2.28477 0.00626273 57 4 1 0.999425 
-0.357813 -0.244265 -5.88382 0.0025 0.809829 0.744336 2.29783 0.00617414 58 4 1 0.999445 
-0.354748 -0.228374 -5.89423 0.0025 0.82124 0.759059 2.31072 0.00608836 59 4 1 0.999464 
-0.351725 -0.212718 -5.90315 0.0025 0.832606 0.773807 2.32346 0.00600524 60 4 1 0.999481 
-0.348743 -0.197291 -5.91488 0.0025 0.84393 0.78858 2.33604 0.00592466 61 4 1 0.999499 
-0.3458 -0.18211 -5.92214 0.0025 0.85521 0.803375 2.34848 0.00584652 62 4 1 0.999516 
-0.342896 -0.167112 -5.91742 0.0025 0.866435 0.818176 2.36076 0.00577077 63 4 1 0.999532 
-0.340029 -0.152353 -5.9334 0.0025 0.877613 0.83299 2.37289 0.00569727 64 4 1 0.999547 
-0.337198 -0.137822 -5.92868 0.0025 0.888742 0.847816 2.38488 0.00562593 65 4 1 0.999563 
-0.334403 -0.123496 -5.92184 0.0025 0.899807 0.86263 2.39671 0.00555674 66 4 1 0.999578 
-0.331641 -0.109413 -5.92115 0.0025 0.910812 0.877435 2.40839 0.00548961 67 4 1 0.999592 
-0.328913 -0.095514 -5.92862 0.0025 0.921764 0.892242 2.41994 0.00542438 68 4 1 0.999606 
-0.326217 -0.0817865 -5.91742 0.0025 0.932646 0.907026 2.43132 0.00536109 69 4 1 0.999632 
-0.323552 -0.0684651 -5.72575 0.0025 0.943319 0.921591 2.44241 0.00530043 70 4 1 0.999653 
-0.320916 -0.055763 -5.61899 0.0025 0.953759 0.93588 2.45317 0.00524241 71 4 1 0.999624 
-0.318309 -0.0426861 -6.30508 0.0025 0.964581 0.950777 2.46427 0.0051836 72 4 1 0.999598 
-0.315732 -0.0282122 -6.75292 0.0025 0.976023 0.966686 2.47599 0.00512283 73 4 1 0.999755 
-0.313186 -0.0157089 -4.3207 0.0025 0.985771 0.980274 2.48587 0.00507217 74 4 1 0.999916 
-0.31066 -0.00972271 -1.60026 0.0025 0.991832 0.988536 2.49181 0.00504117 75 4 1 0.999819 
-0.308145 -0.00328423 -5.53228 0.0025 0.998947 0.998337 2.49886 0.00500527 76 4 1 0.99938 
-0.305655 0.0148042 -11.0697 0.0025 1.01273 1.01796 2.51284 0.00493715 77 4 1 0.999568 
-0.303207 0.0341035 -6.15484 0.0025 1.02675 1.03795 2.52683 0.00486975 78 4 1 0.999995 
-0.300785 0.0389089 0.047754 0.0025 1.03212 1.04541 2.53198 0.00484439 79 3 1 1 
-0.298363 0.037298 1.12742 0.0025 1.03111 1.04389 2.53092 0.00484912 80 4 1 1 
-0.295936 0.0342816 1.60272 0.0025 1.02841 1.04004 2.52824 0.00486188 81 4 1 0.999982 
-0.293501 0.0304814 1.94115 0.0025 1.02505 1.03528 2.52493 0.00487779 82 4 1 0.99997 
-0.291058 0.0262057 2.12604 0.0025 1.02137 1.03006 2.52127 0.0048954 83 4 1 0.999962 
-0.288606 0.0217676 2.15707 0.0025 1.01761 1.02475 2.51755 0.00491347 84 4 1 0.99996 
-0.286144 0.017465 2.04703 0.0025 1.01403 1.0197 2.51399 0.00493082 85 4 1 0.999962 
-0.283675 0.0135408 1.8304 0.0025 1.01081 1.01516 2.51078 0.00494653 86 4 1 0.999969 
-0.281198 0.010154 1.55108 0.0025 1.00806 1.01129 2.50804 0.00496002 87 4 1 0.999977 
-0.278715 0.00737403 1.25215 0.0025 1.00583 1.00815 2.50581 0.00497104 88 4 1 0.999984 
-0.276227 0.00519365 0.967527 0.0025 1.00409 1.00571 2.50407 0.00497965 89 4 1 0.99999 
-0.273735 0.00355259 0.718529 0.0025 1.00278 1.00389 2.50278 0.00498612 90 4 1 0.999995 
-0.271241 0.00236296 0.514641 0.0025 1.00185 1.00258 2.50184 0.00499079 91 4 1 0.999997 
-0.268744 0.00152983 0.35649 0.0025 1.00119 1.00166 2.50119 0.00499405 92 4 1 0.999999 
-0.266247 0.000964801 0.239329 0.0025 1.00075 1.00105 2.50075 0.00499625 93 4 1 0.999999 
-0.263748 0.000593036 0.155968 0.0025 1.00046 1.00064 2.50046 0.0049977 94 4 1 1 
-0.261249 0.000355414 0.0987778 0.0025 1.00027 1.00038 2.50027 0.00499863 95 4 1 1 
-0.258749 0.00020773 0.060843 0.0025 1.00016 1.00022 2.50016 0.0049992 96 4 1 1 
-0.25625 0.000118421 0.0364692 0.0025 1.00009 1.00013 2.50009 0.00499954 97 4 1 1 
-0.25375 6.58486e-05 0.0212796 0.0025 1.00005 1.00007 2.50005 0.00499975 98 4 1 1 
-0.25125 3.57147e-05 0.01209 0.0025 1.00003 1.00004 2.50003 0.00499986 99 4 1 1 
-0.24875 1.88933e-05 0.00668923 0.0025 1.00001 1.00002 2.50001 0.00499993 100 4 1 1 
-0.24625 9.74737e-06 0.00360449 0.0025 1.00001 1.00001 2.50001 0.00499996 101 4 1 1 
-0.24375 4.90383e-06 0.00189164 0.0025 1 1.00001 2.5 0.00499998 102 4 1 1 
-0.24125 2.40539e-06 0.000966825 0.0025 1 1 2.5 0.00499999 103 4 1 1 
-0.23875 1.15016e-06 0.000481218 0.0025 1 1 2.5 0.005 104 4 1 1 
-0.23625 5.36e-07 0.000233223 0.0025 1 1 2.5 0.005 105 4 1 1 
-0.23375 2.43384e-07 0.000110046 0.0025 1 1 2.5 0.005 106 4 1 1 
-0.23125 1.07651e-07 5.05434e-05 0.0025 1 1 2.5 0.005 107 4 1 1 
-0.22875 4.63662e-08 2.25911e-05 0.0025 1 1 2.5 0.005 108 4 1 1 
-0.22625 1.9439e-08 9.8235e-06 0.0025 1 1 2.5 0.005 109 4 1 1 
-0.22375 7.92948e-09 4.15434e-06 0.0025 1 1 2.5 0.005 110 4 1 1 
-0.22125 3.14556e-09 1.70792e-06 0.0025 1 1 2.5 0.005 111 4 1 1 
-0.21875 1.21278e-09 6.82244e-07 0.0025 1 1 2.5 0.005 112 4 1 1 
-0.21625 4.54159e-10 2.64666e-07 0.0025 1 1 2.5 0.005 113 4 1 1 
-0.21375 1.65053e-10 9.96458e-08 0.0025 1 1 2.5 0.005 114 4 1 1 
-0.21125 5.81672e-11 3.63634e-08 0.0025 1 1 2.5 0.005 115 4 1 1 
-0.20875 1.98561e-11 1.28736e-08 0.0025 1 1 2.5 0.005 116 4 1 1 
-0.20625 6.55191e-12 4.40195e-09 0.0025 1 1 2.5 0.005 117 4 1 1 
-0.20375 2.09335e-12 1.45553e-09 0.0025 1 1 2.5 0.005 118 4 1 1 
-0.20125 6.44294e-13 4.63615e-10 0.0025 1 1 2.5 0.005 119 4 1 1 
-0.19875 1.87909e-13 1.4694e-10 0.0025 1 1 2.5 0.005 120 4 1 1 
-0.19625 5.55182e-14 4.08136e-11 0.0025 1 1 2.5 0.005 121 4 1 1 
-0.19375 7.52371e-15 1.49498e-11 0.0025 1 1 2.5 0.005 122 4 1 1 
-0.19125 3.97784e-16 -5.68434e-14 0.0025 1 1 2.5 0.005 123 5 1 1 
-0.18875 5.189e-17 1.7053e-13 0.0025 1 1 2.5 0.005 124 5 1 1 
-0.18625 1.02335e-47 3.36312e-44 0.0025 1 1 2.5 0.005 125 5 1 1 
-0.18375 0 0 0.0025 1 1 2.5 0.005 126 5 1 1 
-0.18125 0 0 0.0025 1 1 2.5 0.005 127 5 1 1 
-0.17875 0 0 0.0025 1 1 2.5 0.005 128 5 1 1 
-0.17625 0 0 0.0025 1 1 2.5 0.005 129 5 1 1 
-0.17375 0 0 0.0025 1 1 2.5 0.005 130 5 1 1 
-0.17125 0 0 0.0025 1 1 2.5 0.005 131 5 1 1 
-0.16875 0 0 0.0025 1 1 2.5 0.005 132 5 1 1 
-0.16625 0 0 0.0025 1 1 2.5 0.005 133 5 1 1 
-0.16375 0 0 0.0025 1 1 2.5 0.005 134 5 1 1 
-0.16125 0 0 0.0025 1 1 2.5 0.005 135 5 1 1 
-0.15875 0 0 0.0025 1 1 2.5 0.005 136 5 1 1 
-0.15625 0 0 0.0025 1 1 2.5 0.005 137 5 1 1 
-0.15375 0 0 0.0025 1 1 2.5 0.005 138 5 1 1 
-0.15125 0 0 0.0025 1 1 2.5 0.005 139 5 1 1 
-0.14875 0 0 0.0025 1 1 2.5 0.005 140 5 1 1 
-0.14625 0 0 0.0025 1 1 2.5 0.005 141 5 1 1 
-0.14375 0 0 0.0025 1 1 2.5 0.005 142 5 1 1 
-0.14125 0 0 0.0025 1 1 2.5 0.005 143 5 1 1 
-0.13875 0 0 0.0025 1 1 2.5 0.005 144 5 1 1 
-0.13625 0 0 0.0025 1 1 2.5 0.005 145 5 1 1 
-0.13375 0 0 0.0025 1 1 2.5 0.005 146 5 1 1 
-0.13125 0 0 0.0025 1 1 2.5 0.005 147 5 1 1 
-0.12875 0 0 0.0025 1 1 2.5 0.005 148 5 1 1 
-0.12625 0 0 0.0025 1 1 2.5 0.005 149 5 1 1 
-0.12375 0 0 0.0025 1 1 2.5 0.005 150 5 1 1 
-0.12125 0 0 0.0025 1 1 2.5 0.005 151 5 1 1 
-0.11875 0 0 0.0025 1 1 2.5 0.005 152 5 1 1 
-0.11625 0 0 0.0025 1 1 2.5 0.005 153 5 1 1 
-0.11375 0 0 0.0025 1 1 2.5 0.005 154 5 1 1 
-0.11125 0 0 0.0025 1 1 2.5 0.005 155 5 1 1 
-0.10875 0 0 0.0025 1 1 2.5 0.005 156 5 1 1 
-0.10625 0 0 0.0025 1 1 2.5 0.005 157 5 1 1 
-0.10375 0 0 0.0025 1 1 2.5 0.005 158 5 1 1 
-0.10125 0 0 0.0025 1 1 2.5 0.005 159 5 1 1 
-0.09875 0 0 0.0025 1 1 2.5 0.005 160 5 1 1 
-0.09625 0 0 0.0025 1 1 2.5 0.005 161 5 1 1 
-0.09375 0 0 0.0025 1 1 2.5 0.005 162 5 1 1 
-0.09125 0 0 0.0025 1 1 2.5 0.005 163 5 1 1 
-0.08875 0 0 0.0025 1 1 2.5 0.005 164 5 1 1 
-0.08625 0 0 0.0025 1 1 2.5 0.005 165 5 1 1 
-0.08375 -3.41117e-48 -1.12104e-44 0.0025 1 1 2.5 0.005 166 5 1 1 
-0.08125 -1.72967e-17 -5.68434e-14 0.0025 1 1 2.5 0.005 167 5 1 1 
-0.07875 -1.72943e-16 -4.48416e-44 0.0025 1 1 2.5 0.005 168 5 1 1 
-0.07625 -5.18706e-16 -1.13687e-13 0.0025 1 1 2.5 0.005 169 5 1 1 
-0.07375 -1.14094e-15 -1.13687e-13 0.0025 1 1 2.5 0.005 170 5 1 1 
-0.07125 -2.40264e-15 -1.7053e-13 0.0025 1 1 2.5 0.005 171 5 1 1 
-0.06875 -4.40681e-15 -2.84217e-13 0.0025 1 1 2.5 0.005 172 5 1 1 
-0.06625 -1.53482e-15 6.25278e-13 0.0025 1 1 2.5 0.005 173 5 1 1 
-0.06375 -3.9499e-15 7.38964e-13 0.0025 1 1 2.5 0.005 174 3 1 1 
-0.06125 4.13428e-15 -5.11591e-13 0.0025 1 1 2.5 0.005 175 3 1 1 
-0.05875 -6.51141e-16 -4.54747e-13 0.0025 1 1 2.5 0.005 176 5 1 1 
-0.05625 2.35931e-15 2.27374e-13 0.0025 1 1 2.5 0.005 177 5 1 1 
-0.05375 1.05059e-15 1.13687e-13 0.0025 1 1 2.5 0.005 178 5 1 1 
-0.05125 1.55019e-16 1.13687e-13 0.0025 1 1 2.5 0.005 179 5 1 1 
-0.04875 -1.12894e-16 -1.13687e-13 0.0025 1 1 2.5 0.005 180 5 1 1 
-0.04625 -7.58213e-16 -4.48416e-44 0.0025 1 1 2.5 0.005 181 5 1 1 
-0.04375 -1.76547e-15 -5.68434e-14 0.0025 1 1 2.5 0.005 182 5 1 1 
-0.04125 -2.77436e-15 -5.68434e-14 0.0025 1 1 2.5 0.005 183 5 1 1 
-0.03875 -4.39688e-15 -5.68434e-14 0.0025 1 1 2.5 0.005 184 5 1 1 
-0.03625 4.74293e-16 5.68434e-14 0.0025 1 1 2.5 0.005 185 5 1 1 
-0.03375 -4.26852e-15 -1.13687e-13 0.0025 1 1 2.5 0.005 186 4 1 1 
-0.03125 1.55629e-15 6.82121e-13 0.0025 1 1 2.5 0.005 187 3 1 1 
-0.02875 -7.86258e-16 -1.7053e-13 0.0025 1 1 2.5 0.005 188 4 1 1 
-0.02625 -1.74582e-15 -2.84217e-13 0.0025 1 1 2.5 0.005 189 5 1 1 
-0.02375 -2.47273e-15 -3.41061e-13 0.0025 1 1 2.5 0.005 190 4 1 1 
-0.02125 2.23689e-15 3.41061e-13 0.0025 1 1 2.5 0.005 191 4 1 1 
-0.01875 -1.97237e-18 5.68434e-14 0.0025 1 1 2.5 0.005 192 5 1 1 
-0.01625 -3.6825e-16 -5.68434e-14 0.0025 1 1 2.5 0.005 193 4 1 1 
-0.01375 -1.28001e-16 -2.84217e-13 0.0025 1 1 2.5 0.005 194 3 1 1 
-0.01125 -8.86417e-16 3.97904e-13 0.0025 1 1 2.5 0.005 195 5 1 1 
-0.00875 -1.16327e-15 -6.25278e-13 0.0025 1 1 2.5 0.005 196 4 1 1 
-0.00625 -3.94247e-16 1.25056e-12 0.0025 1 1 2.5 0.005 197 4 1 1 
-0.00375 2.59953e-16 -6.25278e-13 0.0025 1 1 2.5 0.005 198 5 1 1 
-0.00125 3.41962e-16 1.13687e-13 0.0025 1 1 2.5 0.005 199 4 1 1 
0.00125 -2.78578e-16 -2.27374e-13 0.0025 1 1 2.5 0.005 200 3 1 1 
0.00375 -1.8316e-16 1.13687e-13 0.0025 1 1 2.5 0.005 201 4 1 1 
0.00625 -6.54386e-16 -3.41061e-13 0.0025 1 1 2.5 0.005 202 4 1 1 
0.00875 1.30501e-15 1.13687e-13 0.0025 1 1 2.5 0.005 203 3 1 1 
0.01125 4.11074e-16 -1.13687e-13 0.0025 1 1 2.5 0.005 204 5 1 1 
0.01375 -8.11239e-16 -1.13687e-13 0.0025 1 1 2.5 0.005 205 4 1 1 
0.01625 2.32897e-15 1.13687e-13 0.0025 1 1 2.5 0.005 206 3 1 1 
0.01875 1.1372e-15 1.13687e-13 0.0025 1 1 2.5 0.005 207 4 1 1 
0.02125 1.00773e-16 5.91646e-28 0.0025 1 1 2.5 0.005 208 5 1 1 
0.02375 -4.30776e-16 -5.91646e-28 0.0025 1 1 2.5 0.005 209 5 1 1 
0.02625 1.87057e-15 -2.27374e-13 0.0025 1 1 2.5 0.005 210 4 1 1 
0.02875 8.26859e-16 -2.27374e-13 0.0025 1 1 2.5 0.005 211 3 1 1 
0.03125 3.93111e-15 2.27374e-13 0.0025 1 1 2.5 0.005 212 4 1 1 
0.03375 1.5427e-15 2.27374e-13 0.0025 1 1 2.5 0.005 213 5 1 1 
0.03625 2.49414e-16 4.54747e-13 0.0025 1 1 2.5 0.005 214 5 1 1 
0.03875 -1.24727e-15 1.13687e-13 0.0025 1 1 2.5 0.005 215 5 1 1 
0.04125 -1.4341e-15 -2.27374e-13 0.0025 1 1 2.5 0.005 216 5 1 1 
0.04375 1.00212e-16 -1.85382e-27 0.0025 1 1 2.5 0.005 217 5 1 1 
0.04625 2.10247e-15 -1.98952e-12 0.0025 1 1 2.5 0.005 218 3 1 1 
0.04875 3.80354e-15 1.08002e-12 0.0025 1 1 2.5 0.005 219 3 1 1 
0.05125 -9.75882e-18 5.68434e-13 0.0025 1 1 2.5 0.005 220 5 1 1 
0.05375 9.41438e-16 5.68434e-14 0.0025 1 1 2.5 0.005 221 5 1 1 
0.05625 5.65795e-16 -5.68434e-14 0.0025 1 1 2.5 0.005 222 5 1 1 
0.05875 -2.97986e-16 -1.7053e-13 0.0025 1 1 2.5 0.005 223 5 1 1 
0.06125 -4.29181e-15 -9.09495e-13 0.0025 1 1 2.5 0.005 224 3 1 1 
0.06375 6.93127e-15 1.7053e-13 0.0025 1 1 2.5 0.005 225 3 1 1 
0.06625 3.04294e-15 2.27374e-13 0.0025 1 1 2.5 0.005 226 5 1 1 
0.06875 1.91939e-15 5.11591e-13 0.0025 1 1 2.5 0.005 227 5 1 1 
0.07125 6.57151e-16 2.27374e-13 0.0025 1 1 2.5 0.005 228 5 1 1 
0.07375 1.2107e-16 5.68434e-14 0.0025 1 1 2.5 0.005 229 5 1 1 
0.07625 3.06991e-47 3.36312e-44 0.0025 1 1 2.5 0.005 230 5 1 1 
0.07875 0 0 0.0025 1 1 2.5 0.005 231 5 1 1 
0.08125 0 0 0.0025 1 1 2.5 0.005 232 5 1 1 
0.08375 0 0 0.0025 1 1 2.5 0.005 233 5 1 1 
0.08625 0 0 0.0025 1 1 2.5 0.005 234 5 1 1 
0.08875 0 0 0.0025 1 1 2.5 0.005 235 5 1 1 
0.09125 -1.11132e-45 0 0.0025 1 1 2.5 0.005 236 5 1 1 
0.09375 -3.35691e-17 0 0.0025 1 1 2.5 0.005 237 5 1 1 
0.09625 5.08369e-16 5.68434e-14 0.0025 1 1 2.5 0.005 238 5 1 1 
0.09875 3.41186e-16 5.68434e-14 0.0025 1 1 2.5 0.005 239 5 1 1 
0.10125 3.86494e-15 1.13687e-13 0.0025 1 1 2.5 0.005 240 5 1 1 
0.10375 3.18561e-15 1.13687e-13 0.0025 1 1 2.5 0.005 241 5 1 1 
0.10625 5.3204e-15 5.68434e-14 0.0025 1 1 2.5 0.005 242 5 1 1 
0.10875 3.58025e-15 5.68434e-14 0.0025 1 1 2.5 0.005 243 5 1 1 
0.11125 6.50847e-15 -2.69049e-43 0.0025 1 1 2.5 0.005 244 5 1 1 
0.11375 4.40904e-15 1.13687e-13 0.0025 1 1 2.5 0.005 245 5 1 1 
0.11625 4.15066e-15 -5.68434e-14 0.0025 1 1 2.5 0.005 246 5 1 1 
0.11875 1.78177e-15 5.68434e-14 0.0025 1 1 2.5 0.005 247 5 1 1 
0.12125 2.06417e-15 -7.14905e-27 0.0025 1 1 2.5 0.005 248 5 1 1 
0.12375 -7.21633e-16 -7.18849e-27 0.0025 1 1 2.5 0.005 249 4 1 1 
0.12625 7.21633e-16 7.18849e-27 0.0025 1 1 2.5 0.005 250 4 1 1 
0.12875 -2.06417e-15 7.14905e-27 0.0025 1 1 2.5 0.005 251 5 1 1 
0.13125 -1.78177e-15 -5.68434e-14 0.0025 1 1 2.5 0.005 252 5 1 1 
0.13375 -4.15066e-15 5.68434e-14 0.0025 1 1 2.5 0.005 253 5 1 1 
0.13625 -4.40904e-15 -1.13687e-13 0.0025 1 1 2.5 0.005 254 5 1 1 
0.13875 -6.50847e-15 2.69049e-43 0.0025 1 1 2.5 0.005 255 5 1 1 
0.14125 -3.58025e-15 -5.68434e-14 0.0025 1 1 2.5 0.005 256 5 1 1 
0.14375 -5.3204e-15 -5.68434e-14 0.0025 1 1 2.5 0.005 257 5 1 1 
0.14625 -3.18561e-15 -1.13687e-13 0.0025 1 1 2.5 0.005 258 5 1 1 
0.14875 -3.86494e-15 -1.13687e-13 0.0025 1 1 2.5 0.005 259 5 1 1 
0.15125 -3.41186e-16 -5.68434e-14 0.0025 1 1 2.5 0.005 260 5 1 1 
0.15375 -5.08369e-16 -5.68434e-14 0.0025 1 1 2.5 0.005 261 5 1 1 
0.15625 3.35691e-17 0 0.0025 1 1 2.5 0.005 262 5 1 1 
0.15875 1.11132e-45 0 0.0025 1 1 2.5 0.005 263 5 1 1 
0.16125 0 0 0.0025 1 1 2.5 0.005 264 5 1 1 
0.16375 0 0 0.0025 1 1 2.5 0.005 265 5 1 1 
0.16625 0 0 0.0025 1 1 2.5 0.005 266 5 1 1 
0.16875 0 0 0.0025 1 1 2.5 0.005 267 5 1 1 
0.17125 0 0 0.0025 1 1 2.5 0.005 268 5 1 1 
0.17375 0 0 0.0025 1 1 2.5 0.005 269 5 1 1 
0.17625 0 0 0.0025 1 1 2.5 0.005 270 5 1 1 
0.17875 0 0 0.0025 1 1 2.5 0.005 271 5 1 1 
0.18125 0 0 0.0025 1 1 2.5 0.005 272 5 1 1 
0.18375 0 0 0.0025 1 1 2.5 0.005 273 5 1 1 
0.18625 -3.41117e-48 -1.12104e-44 0.0025 1 1 2.5 0.005 274 5 1 1 
0.18875 -1.72967e-17 -5.68434e-14 0.0025 1 1 2.5 0.005 275 5 1 1 
0.19125 -2.93998e-16 2.84217e-13 0.0025 1 1 2.5 0.005 276 5 1 1 
0.19375 -6.39948e-15 -1.43245e-11 0.0025 1 1 2.5 0.005 277 4 1 1 
0.19625 -5.18865e-14 -3.66072e-11 0.0025 1 1 2.5 0.005 278 4 1 1 
0.19875 -1.56414e-13 -1.26306e-10 0.0025 1 1 2.5 0.005 279 4 1 1 
0.20125 -5.62577e-13 -4.06374e-10 0.0025 1 1 2.5 0.005 280 4 1 1 
0.20375 -1.83136e-12 -1.25721e-09 0.0025 1 1 2.5 0.005 281 4 1 1 
0.20625 -5.68594e-12 -3.7918e-09 0.0025 1 1 2.5 0.005 282 4 1 1 
0.20875 -1.70787e-11 -1.09872e-08 0.0025 1 1 2.5 0.005 283 4 1 1 
0.21125 -4.97182e-11 -3.08652e-08 0.0025 1 1 2.5 0.005 284 4 1 1 
0.21375 -1.40175e-10 -8.40236e-08 0.0025 1 1 2.5 0.005 285 4 1 1 
