# Time [s]: 6.09757e+12
# Columns: pos [pc], vel [pc/s], acc [pc/s^2], mass [Msun], dens [g/cm^3], pres [barye], ene [erg/g], sml [pc], id, neighbor, alpha, gradh, ...additional?
4.22524e+16 -673.187 5.65586e-14 4.97118e+27 0.000506957 4.40352 21715.4 3.04365e+14 0 4 1 0.994706 
4.2401e+16 -673.198 6.25086e-14 4.97118e+27 0.000531053 4.11662 19379.5 2.90555e+14 1 4 1 0.999667 
4.25431e+16 -673.209 6.86856e-14 4.97118e+27 0.000544186 4.27141 19622.9 2.83543e+14 2 4 1 0.999987 
4.26845e+16 -673.221 7.54428e-14 4.97118e+27 0.000545814 4.28895 19644.7 2.82697e+14 3 4 1 0.999999 
4.28258e+16 -673.234 8.29514e-14 4.97118e+27 0.000546236 4.29151 19641.3 2.82479e+14 4 4 1 1 
4.2967e+16 -673.247 9.1316e-14 4.97118e+27 0.000546338 4.29208 19640.2 2.82426e+14 5 4 1 1 
4.31082e+16 -673.262 1.00578e-13 4.97118e+27 0.000546368 4.29212 19639.3 2.8241e+14 6 4 1 1 
4.32494e+16 -673.278 1.10707e-13 4.97118e+27 0.000546382 4.29206 19638.5 2.82403e+14 7 4 1 1 
4.33906e+16 -673.296 1.21673e-13 4.97118e+27 0.00054639 4.29197 19637.8 2.82399e+14 8 4 1 1 
4.35318e+16 -673.314 1.33535e-13 4.97118e+27 0.000546395 4.29187 19637.2 2.82396e+14 9 4 1 1 
4.3673e+16 -673.335 1.46527e-13 4.97118e+27 0.000546397 4.29175 19636.6 2.82396e+14 10 3 1 1 
4.38142e+16 -673.357 1.61076e-13 4.97118e+27 0.000546396 4.29163 19636.1 2.82396e+14 11 4 1 1 
4.39554e+16 -673.382 1.77665e-13 4.97118e+27 0.000546392 4.29149 19635.6 2.82398e+14 12 4 1 1 
4.40966e+16 -673.409 1.96619e-13 4.97118e+27 0.000546386 4.29134 19635.1 2.82401e+14 13 4 1 1 
4.42378e+16 -673.439 2.18075e-13 4.97118e+27 0.000546377 4.29118 19634.7 2.82406e+14 14 4 1 1 
4.4379e+16 -673.472 2.42235e-13 4.97118e+27 0.000546366 4.29099 19634.2 2.82412e+14 15 4 1 1 
4.45202e+16 -673.508 2.69582e-13 4.97118e+27 0.000546352 4.29078 19633.8 2.82419e+14 16 4 1 1 
4.46614e+16 -673.549 3.00803e-13 4.97118e+27 0.000546335 4.29055 19633.3 2.82427e+14 17 4 1 1 
4.48026e+16 -673.594 3.36556e-13 4.97118e+27 0.000546315 4.29029 19632.8 2.82438e+14 18 4 1 1 
4.49439e+16 -673.644 3.77217e-13 4.97118e+27 0.000546293 4.29 19632.3 2.82449e+14 19 4 1 1 
4.50851e+16 -673.701 4.22764e-13 4.97118e+27 0.000546266 4.28967 19631.8 2.82463e+14 20 4 1 1 
4.52263e+16 -673.764 4.73465e-13 4.97118e+27 0.000546236 4.2893 19631.2 2.82479e+14 21 4 1 1 
4.53676e+16 -673.834 5.31049e-13 4.97118e+27 0.000546201 4.28889 19630.6 2.82497e+14 22 4 1 1 
4.55088e+16 -673.914 5.98146e-13 4.97118e+27 0.000546161 4.28843 19629.9 2.82517e+14 23 4 1 1 
4.56501e+16 -674.003 6.76462e-13 4.97118e+27 0.000546116 4.28791 19629.1 2.82541e+14 24 4 1 1 
4.57914e+16 -674.104 7.68406e-13 4.97118e+27 0.000546064 4.28731 19628.2 2.82568e+14 25 4 1 1 
4.59327e+16 -674.22 8.81335e-13 4.97118e+27 0.000546003 4.28662 19627.3 2.82599e+14 26 4 1 1 
4.6074e+16 -674.354 1.02609e-12 4.97118e+27 0.000545932 4.28582 19626.2 2.82636e+14 27 4 1 1 
4.62153e+16 -674.511 1.21201e-12 4.97118e+27 0.000545848 4.28488 19624.9 2.82679e+14 28 4 1 1 
-1.53634e+16 -674.699 1.45008e-12 4.97118e+27 0.000545747 4.28375 19623.3 2.82732e+14 29 4 1 1 
-1.5222e+16 -674.925 1.75532e-12 4.97118e+27 0.000545624 4.28238 19621.5 2.82796e+14 30 4 1 1 
-1.50806e+16 -675.2 2.13075e-12 4.97118e+27 0.000545475 4.28073 19619.3 2.82873e+14 31 4 1 1 
-1.49391e+16 -675.53 2.55466e-12 4.97118e+27 0.000545296 4.27876 19616.7 2.82965e+14 32 4 1 1 
-1.47976e+16 -675.921 2.99446e-12 4.97118e+27 0.000545088 4.27645 19613.6 2.83074e+14 33 4 1 1 
-1.4656e+16 -676.369 3.40546e-12 4.97118e+27 0.000544852 4.27386 19610.2 2.83196e+14 34 4 1 0.999999 
-1.45144e+16 -676.857 3.68637e-12 4.97118e+27 0.0005446 4.27107 19606.5 2.83327e+14 35 4 1 0.999999 
-1.43727e+16 -677.356 3.6878e-12 4.97118e+27 0.000544347 4.26828 19602.8 2.83459e+14 36 4 1 0.999999 
-1.42309e+16 -677.825 3.31806e-12 4.97118e+27 0.000544119 4.26577 19599.4 2.83578e+14 37 4 1 0.999999 
-1.40891e+16 -678.211 2.74534e-12 4.97118e+27 0.000543942 4.26382 19596.8 2.8367e+14 38 4 1 1 
-1.39473e+16 -678.432 8.72945e-13 4.97118e+27 0.000543842 4.26272 19595.4 2.83722e+14 39 4 1 1 
-1.38054e+16 -678.62 2.777e-12 4.97118e+27 0.000543823 4.26246 19595 2.83732e+14 40 5 1 0.999993 
-1.36635e+16 -677.92 -1.75978e-11 4.97118e+27 0.00054452 4.27005 19604.9 2.83369e+14 41 4 1 0.99992 
-1.3522e+16 -673.109 -5.31214e-11 4.97118e+27 0.000547077 4.29812 19641.6 2.82044e+14 42 4 1 0.99975 
-1.33815e+16 -663.774 -8.48887e-11 4.97118e+27 0.000551871 4.35096 19710.3 2.79594e+14 43 4 1 0.999567 
-1.32424e+16 -651.008 -1.06843e-10 4.97118e+27 0.000558463 4.42392 19804.2 2.76294e+14 44 4 1 0.999445 
-1.31052e+16 -636.3 -1.18904e-10 4.97118e+27 0.00056619 4.50988 19913.4 2.72523e+14 45 4 1 0.999402 
-1.29699e+16 -620.793 -1.22712e-10 4.97118e+27 0.000574436 4.60211 20028.9 2.68611e+14 46 4 1 0.999426 
-1.28366e+16 -605.513 -1.20002e-10 4.97118e+27 0.000582702 4.69511 20143.7 2.64801e+14 47 4 1 0.999486 
-1.27051e+16 -591.044 -1.13736e-10 4.97118e+27 0.000590661 4.78512 20253.2 2.61233e+14 48 4 1 0.999546 
-1.25753e+16 -577.581 -1.08271e-10 4.97118e+27 0.000598221 4.87107 20356.5 2.57931e+14 49 4 1 0.999579 
-1.24471e+16 -564.68 -1.07218e-10 4.97118e+27 0.000605544 4.95473 20455.8 2.54812e+14 50 4 1 0.999577 
-1.23205e+16 -551.794 -1.11172e-10 4.97118e+27 0.00061292 5.03941 20555 2.51746e+14 51 4 1 0.999552 
-1.21954e+16 -538.476 -1.17438e-10 4.97118e+27 0.000620582 5.12781 20657.4 2.48638e+14 52 4 1 0.999517 
-1.20718e+16 -524.601 -1.24815e-10 4.97118e+27 0.000628639 5.22125 20764.2 2.45451e+14 53 4 1 0.999486 
-1.19499e+16 -510.147 -1.30855e-10 4.97118e+27 0.000637085 5.31973 20875.4 2.42197e+14 54 4 1 0.999464 
-1.18296e+16 -495.323 -1.35878e-10 4.97118e+27 0.000645848 5.42245 20989.7 2.38911e+14 55 4 1 0.999452 
-1.1711e+16 -480.277 -1.39467e-10 4.97118e+27 0.000654846 5.52851 21106.2 2.35628e+14 56 4 1 0.999449 
-1.1594e+16 -465.135 -1.42264e-10 4.97118e+27 0.000664005 5.63706 21223.8 2.32378e+14 57 4 1 0.999453 
-1.14786e+16 -450.014 -1.4415e-10 4.97118e+27 0.000673268 5.74746 21341.7 2.29181e+14 58 4 1 0.999461 
-1.13648e+16 -434.923 -1.45673e-10 4.97118e+27 0.000682593 5.8592 21459.4 2.2605e+14 59 4 1 0.999471 
-1.12525e+16 -419.975 -1.46937e-10 4.97118e+27 0.000691957 5.97204 21576.7 2.22991e+14 60 4 1 0.999484 
-1.11418e+16 -405.14 -1.47798e-10 4.97118e+27 0.000701339 6.08571 21693.2 2.20008e+14 61 4 1 0.999496 
-1.10325e+16 -390.477 -1.48745e-10 4.97118e+27 0.000710728 6.20007 21808.9 2.17101e+14 62 4 1 0.99951 
-1.09247e+16 -375.955 -1.49092e-10 4.97118e+27 0.00072011 6.31495 21923.6 2.14273e+14 63 4 1 0.999524 
-1.08182e+16 -361.606 -1.49797e-10 4.97118e+27 0.000729478 6.43025 22037.2 2.11521e+14 64 4 1 0.999537 
-1.07132e+16 -347.44 -1.50268e-10 4.97118e+27 0.000738833 6.546 22149.8 2.08843e+14 65 4 1 0.99955 
-1.06094e+16 -333.434 -1.50794e-10 4.97118e+27 0.000748173 6.66213 22261.4 2.06236e+14 66 4 1 0.999562 
-1.05069e+16 -319.6 -1.51225e-10 4.97118e+27 0.000757494 6.77863 22371.9 2.03698e+14 67 4 1 0.999575 
-1.04057e+16 -305.931 -1.5131e-10 4.97118e+27 0.000766788 6.89534 22481.3 2.01229e+14 68 4 1 0.999587 
-1.03057e+16 -292.414 -1.52012e-10 4.97118e+27 0.000776061 7.01236 22589.6 1.98825e+14 69 4 1 0.999598 
-1.02069e+16 -279.079 -1.52314e-10 4.97118e+27 0.000785318 7.12974 22697 1.96481e+14 70 4 1 0.999609 
-1.01092e+16 -265.886 -1.52416e-10 4.97118e+27 0.000794546 7.24729 22803.3 1.94199e+14 71 4 1 0.99962 
-1.00127e+16 -252.868 -1.52967e-10 4.97118e+27 0.00080375 7.3651 22908.6 1.91975e+14 72 4 1 0.999631 
-9.91721e+15 -239.989 -1.52935e-10 4.97118e+27 0.000812927 7.4831 23012.9 1.89808e+14 73 4 1 0.999641 
-9.82284e+15 -227.256 -1.5338e-10 4.97118e+27 0.000822077 7.60127 23116.1 1.87695e+14 74 4 1 0.99965 
-9.72951e+15 -214.7 -1.53567e-10 4.97118e+27 0.000831203 7.71967 23218.4 1.85635e+14 75 4 1 0.99966 
-9.6372e+15 -202.27 -1.53697e-10 4.97118e+27 0.000840299 7.8382 23319.7 1.83625e+14 76 4 1 0.999669 
-9.54588e+15 -189.993 -1.53967e-10 4.97118e+27 0.000849368 7.95688 23420 1.81664e+14 77 4 1 0.999678 
-9.45553e+15 -177.858 -1.5399e-10 4.97118e+27 0.000858407 8.07568 23519.4 1.79752e+14 78 4 1 0.999686 
-9.36612e+15 -165.855 -1.54215e-10 4.97118e+27 0.000867416 8.19458 23617.8 1.77885e+14 79 4 1 0.999694 
-9.27764e+15 -154.002 -1.54384e-10 4.97118e+27 0.000876398 8.31361 23715.3 1.76062e+14 80 4 1 0.999703 
-9.19006e+15 -142.29 -1.54404e-10 4.97118e+27 0.000885349 8.43273 23811.9 1.74282e+14 81 4 1 0.999711 
-9.10335e+15 -130.7 -1.5441e-10 4.97118e+27 0.000894265 8.55185 23907.5 1.72544e+14 82 4 1 0.999718 
-9.01751e+15 -119.255 -1.54461e-10 4.97118e+27 0.000903146 8.67099 24002.2 1.70847e+14 83 4 1 0.999726 
-8.9325e+15 -107.944 -1.54251e-10 4.97118e+27 0.000911988 8.79008 24095.9 1.69191e+14 84 4 1 0.999734 
-8.84831e+15 -96.7772 -1.53969e-10 4.97118e+27 0.000920785 8.90899 24188.6 1.67574e+14 85 4 1 0.999741 
-8.76492e+15 -85.7665 -1.54314e-10 4.97118e+27 0.000929548 9.02792 24280.4 1.65995e+14 86 4 1 0.999747 
-8.68231e+15 -74.8352 -1.54721e-10 4.97118e+27 0.000938287 9.14698 24371.5 1.64449e+14 87 4 1 0.999758 
-8.60047e+15 -64.0515 -1.52221e-10 4.97118e+27 0.000946928 9.26518 24461.1 1.62948e+14 88 4 1 0.999778 
-8.51936e+15 -53.7499 -1.44862e-10 4.97118e+27 0.000955317 9.38021 24547.4 1.61517e+14 89 4 1 0.99978 
-8.43895e+15 -43.7815 -1.49116e-10 4.97118e+27 0.000963644 9.49465 24632.6 1.60121e+14 90 4 1 0.999742 
-8.35924e+15 -32.8604 -1.75687e-10 4.97118e+27 0.000972608 9.61876 24724.3 1.58646e+14 91 4 1 0.999755 
-8.2803e+15 -21.1303 -1.65088e-10 4.97118e+27 0.00098173 9.74615 24817.4 1.57172e+14 92 4 1 0.999896 
-8.20206e+15 -12.8453 -7.53983e-11 4.97118e+27 0.000988442 9.83933 24884.8 1.56104e+14 93 4 1 0.999952 
-8.12419e+15 -9.46998 -4.70691e-11 4.97118e+27 0.00099261 9.89557 24925.2 1.55449e+14 94 4 1 0.999817 
-8.04661e+15 -2.02795 -1.99815e-10 4.97118e+27 0.000999673 9.99411 24996.1 1.5435e+14 95 4 1 0.999537 
-7.96984e+15 14.7527 -2.84875e-10 4.97118e+27 0.00101191 10.1687 25120.4 1.52483e+14 96 4 1 0.999816 
-7.89412e+15 27.7708 -1.02731e-10 4.97118e+27 0.00102186 10.3096 25219.2 1.50999e+14 97 4 1 1 
-7.81884e+15 29.5725 1.06586e-11 4.97118e+27 0.00102458 10.3465 25244.8 1.50599e+14 98 3 1 1 
-7.74352e+15 28.1871 2.67395e-11 4.97118e+27 0.00102351 10.331 25233.9 1.50756e+14 99 4 1 0.999998 
-7.66808e+15 26.0395 3.62352e-11 4.97118e+27 0.0010216 10.3039 25215 1.51038e+14 100 4 1 0.99999 
-7.59249e+15 23.4406 4.23697e-11 4.97118e+27 0.00101932 10.2717 25192.4 1.51375e+14 101 4 1 0.999986 
-7.51671e+15 20.5595 4.60525e-11 4.97118e+27 0.00101684 10.2367 25167.8 1.51745e+14 102 4 1 0.999983 
-7.44074e+15 17.5614 4.70831e-11 4.97118e+27 0.0010143 10.2008 25142.5 1.52125e+14 103 4 1 0.999981 
-7.36458e+15 14.6062 4.56633e-11 4.97118e+27 0.00101182 10.1659 25117.9 1.52497e+14 104 4 1 0.999982 
-7.28824e+15 11.831 4.22412e-11 4.97118e+27 0.00100953 10.1336 25095 1.52844e+14 105 4 1 0.999984 
-7.21174e+15 9.33683 3.74322e-11 4.97118e+27 0.00100748 10.1048 25074.6 1.53154e+14 106 4 1 0.999987 
-7.13509e+15 7.184 3.18926e-11 4.97118e+27 0.00100573 10.0803 25057.2 1.53421e+14 107 4 1 0.99999 
-7.05832e+15 5.39344 2.62111e-11 4.97118e+27 0.00100429 10.06 25042.8 1.53642e+14 108 4 1 0.999993 
-6.98145e+15 3.9542 2.08394e-11 4.97118e+27 0.00100313 10.0438 25031.2 1.53818e+14 109 4 1 0.999996 
-6.9045e+15 2.83329 1.60686e-11 4.97118e+27 0.00100224 10.0313 25022.3 1.53956e+14 110 4 1 0.999997 
-6.82749e+15 1.98551 1.20419e-11 4.97118e+27 0.00100156 10.0218 25015.6 1.54059e+14 111 4 1 0.999999 
-6.75044e+15 1.36164 8.78602e-12 4.97118e+27 0.00100107 10.0149 25010.7 1.54135e+14 112 4 1 0.999999 
-6.67336e+15 0.914271 6.25005e-12 4.97118e+27 0.00100072 10.01 25007.1 1.5419e+14 113 4 1 1 
-6.59625e+15 0.601272 4.33957e-12 4.97118e+27 0.00100047 10.0066 25004.7 1.54228e+14 114 4 1 1 
-6.51913e+15 0.387411 2.94339e-12 4.97118e+27 0.0010003 10.0042 25003 1.54253e+14 115 4 1 1 
-6.442e+15 0.244603 1.95147e-12 4.97118e+27 0.00100019 10.0027 25001.9 1.54271e+14 116 4 1 1 
-6.36486e+15 0.151356 1.26531e-12 4.97118e+27 0.00100012 10.0016 25001.2 1.54282e+14 117 4 1 1 
-6.28772e+15 0.0917945 8.02605e-13 4.97118e+27 0.00100007 10.001 25000.7 1.54289e+14 118 4 1 1 
-6.21057e+15 0.0545676 4.98183e-13 4.97118e+27 0.00100004 10.0006 25000.4 1.54293e+14 119 4 1 1 
-6.13342e+15 0.031795 3.02649e-13 4.97118e+27 0.00100002 10.0003 25000.2 1.54296e+14 120 4 1 1 
-6.05627e+15 0.0181587 1.79973e-13 4.97118e+27 0.00100001 10.0002 25000.1 1.54298e+14 121 4 1 1 
-5.97912e+15 0.0101648 1.0477e-13 4.97118e+27 0.00100001 10.0001 25000.1 1.54299e+14 122 4 1 1 
-5.90197e+15 0.00557677 5.97105e-14 4.97118e+27 0.001 10.0001 25000 1.54299e+14 123 4 1 1 
-5.82482e+15 0.00299855 3.33169e-14 4.97118e+27 0.001 10 25000 1.543e+14 124 4 1 1 
-5.74767e+15 0.00157999 1.82005e-14 4.97118e+27 0.001 10 25000 1.543e+14 125 4 1 1 
-5.67052e+15 0.000815779 9.73425e-15 4.97118e+27 0.001 10 25000 1.543e+14 126 4 1 1 
-5.59337e+15 0.000412691 5.09693e-15 4.97118e+27 0.001 10 25000 1.543e+14 127 4 1 1 
-5.51622e+15 0.000204533 2.61265e-15 4.97118e+27 0.001 10 25000 1.543e+14 128 4 1 1 
-5.43907e+15 9.92954e-05 1.31096e-15 4.97118e+27 0.001 10 25000 1.543e+14 129 4 1 1 
-5.36192e+15 4.72129e-05 6.43863e-16 4.97118e+27 0.001 10 25000 1.543e+14 130 4 1 1 
-5.28477e+15 2.1983e-05 3.09491e-16 4.97118e+27 0.001 10 25000 1.543e+14 131 4 1 1 
-5.20762e+15 1.00213e-05 1.45577e-16 4.97118e+27 0.001 10 25000 1.543e+14 132 4 1 1 
-5.13047e+15 4.47184e-06 6.69987e-17 4.97118e+27 0.001 10 25000 1.543e+14 133 4 1 1 
-5.05332e+15 1.95285e-06 3.0163e-17 4.97118e+27 0.001 10 25000 1.543e+14 134 4 1 1 
-4.97617e+15 8.34375e-07 1.32815e-17 4.97118e+27 0.001 10 25000 1.543e+14 135 4 1 1 
-4.89902e+15 3.48675e-07 5.71817e-18 4.97118e+27 0.001 10 25000 1.543e+14 136 4 1 1 
-4.82187e+15 1.42477e-07 2.40671e-18 4.97118e+27 0.001 10 25000 1.543e+14 137 4 1 1 
-4.74472e+15 5.69073e-08 9.897e-19 4.97118e+27 0.001 10 25000 1.543e+14 138 4 1 1 
-4.66757e+15 2.22015e-08 3.97666e-19 4.97118e+27 0.001 10 25000 1.543e+14 139 4 1 1 
-4.59042e+15 8.45937e-09 1.55794e-19 4.97118e+27 0.001 10 25000 1.543e+14 140 4 1 1 
-4.51327e+15 3.1529e-09 5.98164e-20 4.97118e+27 0.001 10 25000 1.543e+14 141 4 1 1 
-4.43612e+15 1.13128e-09 2.24058e-20 4.97118e+27 0.001 10 25000 1.543e+14 142 4 1 1 
-4.35897e+15 4.0758e-10 8.02734e-21 4.97118e+27 0.001 10 25000 1.543e+14 143 4 1 1 
-4.28182e+15 1.29757e-10 3.02821e-21 4.97118e+27 0.001 10 25000 1.543e+14 144 4 1 1 
-4.20467e+15 4.9741e-11 8.58361e-22 4.97118e+27 0.001 10 25000 1.543e+14 145 4 1 1 
-4.12752e+15 7.5797e-12 4.9365e-22 4.97118e+27 0.001 10 25000 1.543e+14 146 4 1 1 
-4.05037e+15 3.49312e-13 -7.36791e-24 4.97118e+27 0.001 10 25000 1.543e+14 147 5 1 1 
-3.97322e+15 6.98575e-14 7.36791e-24 4.97118e+27 0.001 10 25000 1.543e+14 148 5 1 1 
-3.89607e+15 1.3777e-44 1.45306e-54 4.97118e+27 0.001 10 25000 1.543e+14 149 5 1 1 
-3.81892e+15 0 0 4.97118e+27 0.001 10 25000 1.543e+14 150 5 1 1 
-3.74177e+15 0 0 4.97118e+27 0.001 10 25000 1.543e+14 151 5 1 1 
-3.66462e+15 0 0 4.97118e+27 0.001 10 25000 1.543e+14 152 5 1 1 
-3.58747e+15 0 0 4.97118e+27 0.001 10 25000 1.543e+14 153 5 1 1 
-3.51032e+15 0 0 4.97118e+27 0.001 10 25000 1.543e+14 154 5 1 1 
-3.43317e+15 0 0 4.97118e+27 0.001 10 25000 1.543e+14 155 5 1 1 
-3.35602e+15 0 0 4.97118e+27 0.001 10 25000 1.543e+14 156 5 1 1 
-3.27887e+15 0 0 4.97118e+27 0.001 10 25000 1.543e+14 157 5 1 1 
-3.20172e+15 0 0 4.97118e+27 0.001 10 25000 1.543e+14 158 5 1 1 
-3.12457e+15 0 0 4.97118e+27 0.001 10 25000 1.543e+14 159 5 1 1 
-3.04742e+15 0 0 4.97118e+27 0.001 10 25000 1.543e+14 160 5 1 1 
-2.97027e+15 0 0 4.97118e+27 0.001 10 25000 1.543e+14 161 5 1 1 
-2.89312e+15 0 0 4.97118e+27 0.001 10 25000 1.543e+14 162 5 1 1 
-2.81597e+15 0 0 4.97118e+27 0.001 10 25000 1.543e+14 163 5 1 1 
-2.73882e+15 0 0 4.97118e+27 0.001 10 25000 1.543e+14 164 5 1 1 
-2.66167e+15 0 0 4.97118e+27 0.001 10 25000 1.543e+14 165 5 1 1 
-2.58452e+15 0 0 4.97118e+27 0.001 10 25000 1.543e+14 166 5 1 1 
-2.50737e+15 0 0 4.97118e+27 0.001 10 25000 1.543e+14 167 5 1 1 
-2.43022e+15 0 0 4.97118e+27 0.001 10 25000 1.543e+14 168 5 1 1 
-2.35307e+15 0 0 4.97118e+27 0.001 10 25000 1.543e+14 169 5 1 1 
-2.27592e+15 0 0 4.97118e+27 0.001 10 25000 1.543e+14 170 5 1 1 
-2.19877e+15 -4.47738e-44 -1.0898e-54 4.97118e+27 0.001 10 25000 1.543e+14 171 5 1 1 
-2.12162e+15 -1.57171e-13 -1.84198e-24 4.97118e+27 0.001 10 25000 1.543e+14 172 5 1 1 
-2.04447e+15 -6.11172e-13 -9.20989e-24 4.97118e+27 0.001 10 25000 1.543e+14 173 5 1 1 
-1.96732e+15 -1.67575e-12 -1.84198e-23 4.97118e+27 0.001 10 25000 1.543e+14 174 5 1 1 
-1.89017e+15 -5.41173e-12 -2.94716e-23 4.97118e+27 0.001 10 25000 1.543e+14 175 3 1 1 
-1.81302e+15 -4.48129e-13 6.99951e-23 4.97118e+27 0.001 10 25000 1.543e+14 176 3 1 1 
-1.73587e+15 -1.32482e-13 -7.36791e-24 4.97118e+27 0.001 10 25000 1.543e+14 177 5 1 1 
-1.65872e+15 -2.67517e-13 -3.68395e-24 4.97118e+27 0.001 10 25000 1.543e+14 178 5 1 1 
-1.58157e+15 -4.72853e-13 7.26532e-55 4.97118e+27 0.001 10 25000 1.543e+14 179 5 1 1 
-1.50442e+15 5.47721e-13 3.68395e-24 4.97118e+27 0.001 10 25000 1.543e+14 180 5 1 1 
-1.42727e+15 7.7939e-13 -9.20989e-24 4.97118e+27 0.001 10 25000 1.543e+14 181 5 1 1 
-1.35012e+15 -7.61881e-13 -1.47358e-23 4.97118e+27 0.001 10 25000 1.543e+14 182 5 1 1 
-1.27297e+15 -4.9558e-12 -3.13136e-23 4.97118e+27 0.001 10 25000 1.543e+14 183 3 1 1 
-1.19582e+15 -1.2752e-12 6.26272e-23 4.97118e+27 0.001 10 25000 1.543e+14 184 3 1 1 
-1.11867e+15 6.78134e-13 3.68395e-24 4.97118e+27 0.001 10 25000 1.543e+14 185 5 1 1 
-1.04152e+15 -1.56104e-12 -9.20989e-24 4.97118e+27 0.001 10 25000 1.543e+14 186 4 1 1 
-9.64375e+14 -2.17528e-12 -9.20989e-24 4.97118e+27 0.001 10 25000 1.543e+14 187 3 1 1 
-8.87225e+14 -7.09003e-13 -2.21037e-23 4.97118e+27 0.001 10 25000 1.543e+14 188 4 1 1 
-8.10075e+14 -3.46197e-12 2.94716e-23 4.97118e+27 0.001 10 25000 1.543e+14 189 4 1 1 
-7.32925e+14 -2.1319e-12 7.36791e-24 4.97118e+27 0.001 10 25000 1.543e+14 190 4 1 1 
-6.55775e+14 -3.35187e-13 -1.47358e-23 4.97118e+27 0.001 10 25000 1.543e+14 191 5 1 1 
-5.78625e+14 -1.01117e-12 -6.71017e-39 4.97118e+27 0.001 10 25000 1.543e+14 192 5 1 1 
-5.01475e+14 -2.46343e-12 3.68395e-24 4.97118e+27 0.001 10 25000 1.543e+14 193 4 1 1 
-4.24325e+14 4.29877e-13 -1.84198e-24 4.97118e+27 0.001 10 25000 1.543e+14 194 3 1 1 
-3.47175e+14 -3.74435e-14 1.84198e-24 4.97118e+27 0.001 10 25000 1.543e+14 195 5 1 1 
-2.70025e+14 2.20837e-13 -2.87579e-39 4.97118e+27 0.001 10 25000 1.543e+14 196 5 1 1 
-1.92875e+14 6.75666e-13 3.68395e-24 4.97118e+27 0.001 10 25000 1.543e+14 197 3 1 1 
-1.15725e+14 3.87002e-13 3.68395e-24 4.97118e+27 0.001 10 25000 1.543e+14 198 4 1 1 
-3.8575e+13 -1.2046e-13 -1.84198e-24 4.97118e+27 0.001 10 25000 1.543e+14 199 4 1 1 
3.8575e+13 3.75305e-13 1.28938e-23 4.97118e+27 0.001 10 25000 1.543e+14 200 5 1 1 
1.15725e+14 2.25995e-13 -1.84198e-23 4.97118e+27 0.001 10 25000 1.543e+14 201 3 1 1 
1.92875e+14 4.52395e-13 1.84198e-23 4.97118e+27 0.001 10 25000 1.543e+14 202 3 1 1 
2.70025e+14 1.20634e-12 -3.31556e-23 4.97118e+27 0.001 10 25000 1.543e+14 203 5 1 1 
3.47175e+14 -5.48755e-13 1.65778e-23 4.97118e+27 0.001 10 25000 1.543e+14 204 3 1 1 
4.24325e+14 1.88275e-13 9.20989e-24 4.97118e+27 0.001 10 25000 1.543e+14 205 5 1 1 
5.01475e+14 -9.06745e-13 -1.10519e-23 4.97118e+27 0.001 10 25000 1.543e+14 206 5 1 1 
5.78625e+14 1.68518e-12 -3.68395e-24 4.97118e+27 0.001 10 25000 1.543e+14 207 4 1 1 
6.55775e+14 1.04632e-12 -3.68395e-24 4.97118e+27 0.001 10 25000 1.543e+14 208 5 1 1 
7.32925e+14 -1.07791e-12 -1.84198e-24 4.97118e+27 0.001 10 25000 1.543e+14 209 4 1 1 
8.10075e+14 1.62887e-12 -2.55626e-39 4.97118e+27 0.001 10 25000 1.543e+14 210 4 1 1 
8.87225e+14 -2.37897e-12 5.52593e-24 4.97118e+27 0.001 10 25000 1.543e+14 211 3 1 1 
9.64375e+14 5.53969e-12 3.68395e-24 4.97118e+27 0.001 10 25000 1.543e+14 212 4 1 1 
1.04153e+15 1.90804e-12 6.0072e-38 4.97118e+27 0.001 10 25000 1.543e+14 213 5 1 1 
1.11868e+15 2.02458e-12 -1.27813e-39 4.97118e+27 0.001 10 25000 1.543e+14 214 5 1 1 
1.19583e+15 1.49681e-12 -3.63266e-55 4.97118e+27 0.001 10 25000 1.543e+14 215 5 1 1 
