# Time [s]: 6.0786e+12
# Columns: pos [pc], vel [pc/s], acc [pc/s^2], mass [Msun], dens [g/cm^3], pres [barye], ene [erg/g], sml [pc], id, neighbor, alpha, gradh, ...additional?
4.22651e+16 -673.188 5.7211e-14 4.97118e+27 0.000506957 4.40351 21715.4 3.04365e+14 0 4 1 0.994706 
4.24137e+16 -673.199 6.32343e-14 4.97118e+27 0.000531052 4.11661 19379.5 2.90555e+14 1 4 1 0.999667 
4.25558e+16 -673.21 6.94865e-14 4.97118e+27 0.000544185 4.2714 19622.9 2.83543e+14 2 4 1 0.999987 
4.26973e+16 -673.222 7.63179e-14 4.97118e+27 0.000545814 4.28894 19644.7 2.82697e+14 3 4 1 0.999999 
4.28385e+16 -673.235 8.39012e-14 4.97118e+27 0.000546235 4.2915 19641.3 2.82479e+14 4 4 1 1 
4.29798e+16 -673.249 9.23531e-14 4.97118e+27 0.000546337 4.29207 19640.2 2.82426e+14 5 4 1 1 
4.3121e+16 -673.264 1.01731e-13 4.97118e+27 0.000546367 4.29211 19639.3 2.82411e+14 6 4 1 1 
4.32622e+16 -673.28 1.12016e-13 4.97118e+27 0.000546381 4.29204 19638.5 2.82404e+14 7 4 1 1 
4.34034e+16 -673.298 1.23174e-13 4.97118e+27 0.000546389 4.29196 19637.8 2.824e+14 8 4 1 1 
4.35446e+16 -673.317 1.35251e-13 4.97118e+27 0.000546393 4.29185 19637.2 2.82397e+14 9 4 1 1 
4.36858e+16 -673.338 1.48461e-13 4.97118e+27 0.000546395 4.29174 19636.6 2.82396e+14 10 3 1 1 
4.3827e+16 -673.361 1.63222e-13 4.97118e+27 0.000546394 4.29161 19636.1 2.82397e+14 11 4 1 1 
4.39682e+16 -673.385 1.80045e-13 4.97118e+27 0.00054639 4.29147 19635.6 2.82399e+14 12 4 1 1 
4.41094e+16 -673.413 1.99301e-13 4.97118e+27 0.000546384 4.29132 19635.1 2.82402e+14 13 4 1 1 
4.42506e+16 -673.443 2.21149e-13 4.97118e+27 0.000546375 4.29115 19634.7 2.82407e+14 14 4 1 1 
4.43918e+16 -673.476 2.45766e-13 4.97118e+27 0.000546363 4.29096 19634.2 2.82413e+14 15 4 1 1 
4.4533e+16 -673.513 2.73605e-13 4.97118e+27 0.000546349 4.29075 19633.7 2.8242e+14 16 4 1 1 
4.46742e+16 -673.555 3.05352e-13 4.97118e+27 0.000546332 4.29051 19633.3 2.82429e+14 17 4 1 1 
4.48154e+16 -673.6 3.41693e-13 4.97118e+27 0.000546312 4.29025 19632.8 2.82439e+14 18 4 1 1 
4.49566e+16 -673.652 3.83069e-13 4.97118e+27 0.000546289 4.28995 19632.3 2.82451e+14 19 4 1 1 
4.50979e+16 -673.709 4.29485e-13 4.97118e+27 0.000546262 4.28962 19631.7 2.82465e+14 20 4 1 1 
4.52391e+16 -673.773 4.81088e-13 4.97118e+27 0.000546231 4.28925 19631.1 2.82481e+14 21 4 1 1 
4.53803e+16 -673.845 5.39505e-13 4.97118e+27 0.000546196 4.28883 19630.5 2.825e+14 22 4 1 1 
4.55216e+16 -673.925 6.0766e-13 4.97118e+27 0.000546155 4.28836 19629.8 2.8252e+14 23 4 1 1 
4.56629e+16 -674.016 6.8774e-13 4.97118e+27 0.000546109 4.28783 19629 2.82544e+14 24 4 1 1 
4.58041e+16 -674.119 7.82164e-13 4.97118e+27 0.000546056 4.28722 19628.1 2.82572e+14 25 4 1 1 
4.59454e+16 -674.237 8.98243e-13 4.97118e+27 0.000545994 4.28652 19627.1 2.82604e+14 26 4 1 1 
4.60867e+16 -674.373 1.04764e-12 4.97118e+27 0.000545922 4.2857 19626 2.82641e+14 27 4 1 1 
4.62281e+16 -674.534 1.24038e-12 4.97118e+27 0.000545835 4.28474 19624.7 2.82686e+14 28 4 1 1 
-1.53506e+16 -674.726 1.4866e-12 4.97118e+27 0.000545731 4.28358 19623.1 2.8274e+14 29 4 1 1 
-1.52092e+16 -674.959 1.80066e-12 4.97118e+27 0.000545605 4.28218 19621.2 2.82805e+14 30 4 1 1 
-1.50678e+16 -675.241 2.18605e-12 4.97118e+27 0.000545452 4.28048 19619 2.82884e+14 31 4 1 1 
-1.49263e+16 -675.579 2.6182e-12 4.97118e+27 0.00054527 4.27846 19616.3 2.82979e+14 32 4 1 1 
-1.47848e+16 -675.978 3.05736e-12 4.97118e+27 0.000545057 4.27611 19613.1 2.8309e+14 33 4 1 1 
-1.46432e+16 -676.434 3.45571e-12 4.97118e+27 0.000544818 4.27348 19609.7 2.83214e+14 34 4 1 0.999999 
-1.45016e+16 -676.927 3.71505e-12 4.97118e+27 0.000544564 4.27067 19605.9 2.83346e+14 35 4 1 0.999999 
-1.43599e+16 -677.425 3.68221e-12 4.97118e+27 0.000544312 4.2679 19602.3 2.83477e+14 36 4 1 0.999999 
-1.42181e+16 -677.887 3.24489e-12 4.97118e+27 0.000544088 4.26543 19599 2.83594e+14 37 4 1 0.999999 
-1.40763e+16 -678.262 2.63354e-12 4.97118e+27 0.000543921 4.26358 19596.5 2.83681e+14 38 4 1 1 
-1.39344e+16 -678.447 7.50416e-13 4.97118e+27 0.000543827 4.26255 19595.2 2.8373e+14 39 5 1 1 
-1.37925e+16 -678.666 2.06452e-12 4.97118e+27 0.000543848 4.26272 19595.3 2.83719e+14 40 4 1 0.999989 
-1.36507e+16 -677.542 -2.23274e-11 4.97118e+27 0.000544741 4.27246 19608.1 2.83254e+14 41 4 1 0.9999 
-1.35093e+16 -672.054 -5.81772e-11 4.97118e+27 0.000547623 4.30413 19649.5 2.81763e+14 42 4 1 0.999721 
-1.33689e+16 -662.126 -8.89023e-11 4.97118e+27 0.000552721 4.36034 19722.5 2.79165e+14 43 4 1 0.999543 
-1.32301e+16 -648.958 -1.09375e-10 4.97118e+27 0.000559532 4.43578 19819.3 2.75766e+14 44 4 1 0.999431 
-1.30931e+16 -634.032 -1.20323e-10 4.97118e+27 0.00056739 4.52326 19930.2 2.71947e+14 45 4 1 0.999399 
-1.29581e+16 -618.464 -1.22938e-10 4.97118e+27 0.000575687 4.61616 20046.3 2.68027e+14 46 4 1 0.999431 
-1.28251e+16 -603.242 -1.19484e-10 4.97118e+27 0.000583942 4.7091 20160.8 2.64238e+14 47 4 1 0.999494 
-1.26939e+16 -588.895 -1.129e-10 4.97118e+27 0.000591855 4.79868 20269.6 2.60706e+14 48 4 1 0.999551 
-1.25644e+16 -575.529 -1.08065e-10 4.97118e+27 0.00059938 4.88429 20372.2 2.57433e+14 49 4 1 0.999578 
-1.24365e+16 -562.641 -1.07783e-10 4.97118e+27 0.00060671 4.96809 20471.5 2.54323e+14 50 4 1 0.999572 
-1.23101e+16 -549.674 -1.12389e-10 4.97118e+27 0.000614137 5.05343 20571.3 2.51247e+14 51 4 1 0.999545 
-1.21852e+16 -536.235 -1.18871e-10 4.97118e+27 0.000621878 5.14281 20674.6 2.48119e+14 52 4 1 0.999509 
-1.20619e+16 -522.22 -1.26357e-10 4.97118e+27 0.000630024 5.23737 20782.5 2.44911e+14 53 4 1 0.999478 
-1.19403e+16 -507.654 -1.32124e-10 4.97118e+27 0.000638555 5.33692 20894.6 2.41639e+14 54 4 1 0.999458 
-1.18203e+16 -492.736 -1.36981e-10 4.97118e+27 0.000647388 5.44055 21009.7 2.38343e+14 55 4 1 0.999448 
-1.17019e+16 -477.623 -1.40425e-10 4.97118e+27 0.000656444 5.54741 21126.8 2.35054e+14 56 4 1 0.999446 
-1.15852e+16 -462.43 -1.43042e-10 4.97118e+27 0.000665651 5.65664 21244.8 2.31803e+14 57 4 1 0.999451 
-1.14701e+16 -447.272 -1.44977e-10 4.97118e+27 0.000674957 5.76765 21363.1 2.28607e+14 58 4 1 0.99946 
-1.13566e+16 -432.155 -1.46272e-10 4.97118e+27 0.000684318 5.87996 21481.1 2.2548e+14 59 4 1 0.99947 
-1.12446e+16 -417.182 -1.47633e-10 4.97118e+27 0.000693715 5.99329 21598.6 2.22426e+14 60 4 1 0.999483 
-1.11341e+16 -402.332 -1.48358e-10 4.97118e+27 0.000703128 6.10745 21715.3 2.19448e+14 61 4 1 0.999496 
-1.10252e+16 -387.651 -1.49381e-10 4.97118e+27 0.000712545 6.22228 21831.2 2.16548e+14 62 4 1 0.99951 
-1.09176e+16 -373.122 -1.49661e-10 4.97118e+27 0.000721955 6.33762 21946.1 2.13725e+14 63 4 1 0.999524 
-1.08114e+16 -358.761 -1.5032e-10 4.97118e+27 0.000731348 6.45335 22059.8 2.1098e+14 64 4 1 0.999537 
-1.07066e+16 -344.585 -1.50858e-10 4.97118e+27 0.000740729 6.56952 22172.5 2.08308e+14 65 4 1 0.999549 
-1.06031e+16 -330.57 -1.51333e-10 4.97118e+27 0.000750093 6.68609 22284.2 2.05708e+14 66 4 1 0.999562 
-1.05009e+16 -316.727 -1.51766e-10 4.97118e+27 0.000759439 6.803 22394.9 2.03176e+14 67 4 1 0.999575 
-1.03999e+16 -303.056 -1.51915e-10 4.97118e+27 0.000768758 6.92015 22504.4 2.00713e+14 68 4 1 0.999587 
-1.03002e+16 -289.527 -1.52475e-10 4.97118e+27 0.000778054 7.03759 22612.8 1.98315e+14 69 4 1 0.999598 
-1.02016e+16 -276.185 -1.52909e-10 4.97118e+27 0.000787334 7.15537 22720.3 1.95978e+14 70 4 1 0.999609 
-1.01042e+16 -262.991 -1.52903e-10 4.97118e+27 0.000796585 7.27335 22826.7 1.93702e+14 71 4 1 0.99962 
-1.00079e+16 -249.962 -1.5353e-10 4.97118e+27 0.000805811 7.39156 22932.1 1.91484e+14 72 4 1 0.999631 
-9.91269e+15 -237.084 -1.53506e-10 4.97118e+27 0.000815013 7.50999 23036.5 1.89322e+14 73 4 1 0.999641 
-9.81856e+15 -224.344 -1.53793e-10 4.97118e+27 0.000824183 7.62855 23139.8 1.87216e+14 74 4 1 0.99965 
-9.72547e+15 -211.783 -1.54175e-10 4.97118e+27 0.00083333 7.74734 23242.2 1.85161e+14 75 4 1 0.99966 
-9.63339e+15 -199.351 -1.54178e-10 4.97118e+27 0.000842449 7.86629 23343.6 1.83156e+14 76 4 1 0.999669 
-9.5423e+15 -187.069 -1.54477e-10 4.97118e+27 0.000851538 7.98536 23444 1.81201e+14 77 4 1 0.999678 
-9.45218e+15 -174.933 -1.54545e-10 4.97118e+27 0.000860599 8.10456 23543.4 1.79294e+14 78 4 1 0.999687 
-9.363e+15 -162.926 -1.54666e-10 4.97118e+27 0.000869628 8.22385 23641.9 1.77432e+14 79 4 1 0.999695 
-9.27475e+15 -151.07 -1.54857e-10 4.97118e+27 0.000878628 8.34325 23739.5 1.75615e+14 80 4 1 0.999703 
-9.18739e+15 -139.357 -1.5496e-10 4.97118e+27 0.000887599 8.46275 23836.1 1.7384e+14 81 4 1 0.999711 
-9.1009e+15 -127.768 -1.54841e-10 4.97118e+27 0.000896534 8.58225 23931.8 1.72107e+14 82 4 1 0.999719 
-9.01527e+15 -116.322 -1.5493e-10 4.97118e+27 0.000905433 8.70174 24026.5 1.70416e+14 83 4 1 0.999727 
-8.93048e+15 -105.015 -1.54663e-10 4.97118e+27 0.000914291 8.82116 24120.3 1.68765e+14 84 4 1 0.999735 
-8.8465e+15 -93.8542 -1.54317e-10 4.97118e+27 0.000923102 8.94039 24213 1.67154e+14 85 4 1 0.999741 
-8.76332e+15 -82.8333 -1.55053e-10 4.97118e+27 0.000931885 9.0597 24304.8 1.65578e+14 86 4 1 0.999748 
-8.68092e+15 -71.8978 -1.55085e-10 4.97118e+27 0.00094064 9.17913 24396 1.64037e+14 87 4 1 0.999762 
-8.59928e+15 -61.1802 -1.5061e-10 4.97118e+27 0.000949246 9.29695 24485 1.6255e+14 88 4 1 0.99978 
-8.51837e+15 -51.0085 -1.44279e-10 4.97118e+27 0.000957592 9.41144 24570.7 1.61133e+14 89 4 1 0.99977 
-8.43815e+15 -40.8863 -1.56245e-10 4.97118e+27 0.000966069 9.5281 24657.4 1.5972e+14 90 4 1 0.999732 
-8.35865e+15 -29.4804 -1.80801e-10 4.97118e+27 0.000975266 9.65582 24751.5 1.58213e+14 91 4 1 0.999788 
-8.27993e+15 -18.191 -1.44927e-10 4.97118e+27 0.000983989 9.7777 24840.3 1.56811e+14 92 4 1 0.99993 
-8.20183e+15 -11.6485 -5.08333e-11 4.97118e+27 0.000989707 9.85649 24897.1 1.55905e+14 93 4 1 0.999937 
-8.12402e+15 -8.28791 -7.76041e-11 4.97118e+27 0.000994068 9.9155 24939.5 1.55221e+14 94 4 1 0.999719 
-8.04661e+15 2.24829 -2.51202e-10 4.97118e+27 0.00100295 10.0407 25029.5 1.53846e+14 95 4 1 0.999556 
-7.97017e+15 19.838 -2.51481e-10 4.97118e+27 0.00101555 10.2204 25156.8 1.51937e+14 96 4 1 0.999918 
-7.89467e+15 29.1783 -4.57216e-11 4.97118e+27 0.0010234 10.3311 25234.1 1.50772e+14 97 4 1 1.00001 
-7.8194e+15 29.3275 1.51855e-11 4.97118e+27 0.00102447 10.3448 25243.6 1.50614e+14 98 3 1 1 
-7.74405e+15 27.6441 3.0534e-11 4.97118e+27 0.00102302 10.3241 25229.1 1.50827e+14 99 4 1 0.999995 
-7.66857e+15 25.3321 3.83836e-11 4.97118e+27 0.00102097 10.295 25208.8 1.5113e+14 100 4 1 0.999989 
-7.59292e+15 22.6226 4.39118e-11 4.97118e+27 0.00101861 10.2617 25185.4 1.51481e+14 101 4 1 0.999985 
-7.51709e+15 19.6793 4.67851e-11 4.97118e+27 0.00101609 10.226 25160.3 1.51857e+14 102 4 1 0.999982 
-7.44107e+15 16.669 4.70358e-11 4.97118e+27 0.00101355 10.1902 25135.1 1.52238e+14 103 4 1 0.999981 
-7.36485e+15 13.7473 4.49335e-11 4.97118e+27 0.00101111 10.1559 25110.8 1.52605e+14 104 4 1 0.999982 
-7.28846e+15 11.0418 4.09954e-11 4.97118e+27 0.00100888 10.1244 25088.5 1.52943e+14 105 4 1 0.999985 
-7.21191e+15 8.64185 3.58677e-11 4.97118e+27 0.00100691 10.0969 25069 1.53241e+14 106 4 1 0.999988 
-7.13522e+15 6.59527 3.02006e-11 4.97118e+27 0.00100525 10.0736 25052.4 1.53494e+14 107 4 1 0.999991 
-7.05842e+15 4.91216 2.45495e-11 4.97118e+27 0.0010039 10.0545 25038.9 1.53701e+14 108 4 1 0.999994 
-6.98152e+15 3.57344 1.93192e-11 4.97118e+27 0.00100283 10.0395 25028.2 1.53865e+14 109 4 1 0.999996 
-6.90455e+15 2.54105 1.47538e-11 4.97118e+27 0.001002 10.028 25020 1.53992e+14 110 4 1 0.999998 
-6.82753e+15 1.76745 1.09562e-11 4.97118e+27 0.00100139 10.0194 25013.9 1.54086e+14 111 4 1 0.999999 
-6.75046e+15 1.2032 7.92461e-12 4.97118e+27 0.00100094 10.0132 25009.4 1.54155e+14 112 4 1 0.999999 
-6.67337e+15 0.802011 5.59013e-12 4.97118e+27 0.00100063 10.0088 25006.2 1.54203e+14 113 4 1 1 
-6.59626e+15 0.523627 3.84978e-12 4.97118e+27 0.00100041 10.0057 25004.1 1.54237e+14 114 4 1 1 
-6.51914e+15 0.334944 2.59033e-12 4.97118e+27 0.00100026 10.0036 25002.6 1.5426e+14 115 4 1 1 
-6.442e+15 0.209946 1.70385e-12 4.97118e+27 0.00100016 10.0023 25001.6 1.54275e+14 116 4 1 1 
-6.36486e+15 0.128966 1.09611e-12 4.97118e+27 0.0010001 10.0014 25001 1.54285e+14 117 4 1 1 
-6.28772e+15 0.077644 6.8986e-13 4.97118e+27 0.00100006 10.0008 25000.6 1.54291e+14 118 4 1 1 
-6.21057e+15 0.0458159 4.24864e-13 4.97118e+27 0.00100004 10.0005 25000.4 1.54295e+14 119 4 1 1 
-6.13342e+15 0.0264974 2.56091e-13 4.97118e+27 0.00100002 10.0003 25000.2 1.54297e+14 120 4 1 1 
-6.05627e+15 0.0150197 1.51093e-13 4.97118e+27 0.00100001 10.0002 25000.1 1.54298e+14 121 4 1 1 
-5.97912e+15 0.00834405 8.72644e-14 4.97118e+27 0.00100001 10.0001 25000.1 1.54299e+14 122 4 1 1 
-5.90197e+15 0.00454283 4.93392e-14 4.97118e+27 0.001 10 25000 1.54299e+14 123 4 1 1 
-5.82482e+15 0.00242373 2.731e-14 4.97118e+27 0.001 10 25000 1.543e+14 124 4 1 1 
-5.74767e+15 0.00126711 1.47988e-14 4.97118e+27 0.001 10 25000 1.543e+14 125 4 1 1 
-5.67052e+15 0.000649052 7.8505e-15 4.97118e+27 0.001 10 25000 1.543e+14 126 4 1 1 
-5.59337e+15 0.000325712 4.07681e-15 4.97118e+27 0.001 10 25000 1.543e+14 127 4 1 1 
-5.51622e+15 0.000160112 2.07238e-15 4.97118e+27 0.001 10 25000 1.543e+14 128 4 1 1 
-5.43907e+15 7.70893e-05 1.03113e-15 4.97118e+27 0.001 10 25000 1.543e+14 129 4 1 1 
-5.36192e+15 3.63475e-05 5.0212e-16 4.97118e+27 0.001 10 25000 1.543e+14 130 4 1 1 
-5.28477e+15 1.67799e-05 2.39277e-16 4.97118e+27 0.001 10 25000 1.543e+14 131 4 1 1 
-5.20762e+15 7.58326e-06 1.11565e-16 4.97118e+27 0.001 10 25000 1.543e+14 132 4 1 1 
-5.13047e+15 3.35411e-06 5.08891e-17 4.97118e+27 0.001 10 25000 1.543e+14 133 4 1 1 
-5.05332e+15 1.4516e-06 2.27033e-17 4.97118e+27 0.001 10 25000 1.543e+14 134 4 1 1 
-4.97617e+15 6.14537e-07 9.90501e-18 4.97118e+27 0.001 10 25000 1.543e+14 135 4 1 1 
-4.89902e+15 2.54405e-07 4.2245e-18 4.97118e+27 0.001 10 25000 1.543e+14 136 4 1 1 
-4.82187e+15 1.02962e-07 1.76094e-18 4.97118e+27 0.001 10 25000 1.543e+14 137 4 1 1 
-4.74472e+15 4.07219e-08 7.17376e-19 4.97118e+27 0.001 10 25000 1.543e+14 138 4 1 1 
-4.66757e+15 1.57312e-08 2.84762e-19 4.97118e+27 0.001 10 25000 1.543e+14 139 4 1 1 
-4.59042e+15 5.92885e-09 1.11101e-19 4.97118e+27 0.001 10 25000 1.543e+14 140 4 1 1 
-4.51327e+15 2.18921e-09 4.18239e-20 4.97118e+27 0.001 10 25000 1.543e+14 141 4 1 1 
-4.43612e+15 7.72175e-10 1.54689e-20 4.97118e+27 0.001 10 25000 1.543e+14 142 4 1 1 
-4.35897e+15 2.76877e-10 5.75802e-21 4.97118e+27 0.001 10 25000 1.543e+14 143 4 1 1 
-4.28182e+15 8.56416e-11 1.62462e-21 4.97118e+27 0.001 10 25000 1.543e+14 144 4 1 1 
-4.20467e+15 3.15257e-11 1.06282e-21 4.97118e+27 0.001 10 25000 1.543e+14 145 4 1 1 
-4.12752e+15 2.16575e-12 7.7363e-23 4.97118e+27 0.001 10 25000 1.543e+14 146 5 1 1 
-4.05037e+15 2.27061e-13 2.02618e-23 4.97118e+27 0.001 10 25000 1.543e+14 147 5 1 1 
-3.97322e+15 6.2004e-44 4.35919e-54 4.97118e+27 0.001 10 25000 1.543e+14 148 5 1 1 
-3.89607e+15 0 0 4.97118e+27 0.001 10 25000 1.543e+14 149 5 1 1 
-3.81892e+15 0 0 4.97118e+27 0.001 10 25000 1.543e+14 150 5 1 1 
-3.74177e+15 0 0 4.97118e+27 0.001 10 25000 1.543e+14 151 5 1 1 
-3.66462e+15 0 0 4.97118e+27 0.001 10 25000 1.543e+14 152 5 1 1 
-3.58747e+15 0 0 4.97118e+27 0.001 10 25000 1.543e+14 153 5 1 1 
-3.51032e+15 0 0 4.97118e+27 0.001 10 25000 1.543e+14 154 5 1 1 
-3.43317e+15 0 0 4.97118e+27 0.001 10 25000 1.543e+14 155 5 1 1 
-3.35602e+15 0 0 4.97118e+27 0.001 10 25000 1.543e+14 156 5 1 1 
-3.27887e+15 0 0 4.97118e+27 0.001 10 25000 1.543e+14 157 5 1 1 
-3.20172e+15 0 0 4.97118e+27 0.001 10 25000 1.543e+14 158 5 1 1 
-3.12457e+15 0 0 4.97118e+27 0.001 10 25000 1.543e+14 159 5 1 1 
-3.04742e+15 0 0 4.97118e+27 0.001 10 25000 1.543e+14 160 5 1 1 
-2.97027e+15 0 0 4.97118e+27 0.001 10 25000 1.543e+14 161 5 1 1 
-2.89312e+15 0 0 4.97118e+27 0.001 10 25000 1.543e+14 162 5 1 1 
-2.81597e+15 0 0 4.97118e+27 0.001 10 25000 1.543e+14 163 5 1 1 
-2.73882e+15 0 0 4.97118e+27 0.001 10 25000 1.543e+14 164 5 1 1 
-2.66167e+15 0 0 4.97118e+27 0.001 10 25000 1.543e+14 165 5 1 1 
-2.58452e+15 0 0 4.97118e+27 0.001 10 25000 1.543e+14 166 5 1 1 
-2.50737e+15 0 0 4.97118e+27 0.001 10 25000 1.543e+14 167 5 1 1 
-2.43022e+15 0 0 4.97118e+27 0.001 10 25000 1.543e+14 168 5 1 1 
-2.35307e+15 0 0 4.97118e+27 0.001 10 25000 1.543e+14 169 5 1 1 
-2.27592e+15 0 0 4.97118e+27 0.001 10 25000 1.543e+14 170 5 1 1 
-2.19877e+15 -3.09969e-44 -3.63266e-55 4.97118e+27 0.001 10 25000 1.543e+14 171 5 1 1 
-2.12162e+15 -1.22242e-13 -1.84198e-24 4.97118e+27 0.001 10 25000 1.543e+14 172 5 1 1 
-2.04447e+15 -4.36528e-13 -9.20989e-24 4.97118e+27 0.001 10 25000 1.543e+14 173 5 1 1 
-1.96732e+15 -1.3614e-12 -1.47358e-23 4.97118e+27 0.001 10 25000 1.543e+14 174 5 1 1 
-1.89017e+15 -4.78301e-12 -3.68395e-23 4.97118e+27 0.001 10 25000 1.543e+14 175 3 1 1 
-1.81302e+15 -1.77542e-12 6.99951e-23 4.97118e+27 0.001 10 25000 1.543e+14 176 3 1 1 
-1.73587e+15 -6.26241e-14 6.0072e-38 4.97118e+27 0.001 10 25000 1.543e+14 177 5 1 1 
-1.65872e+15 -1.9766e-13 -3.68395e-24 4.97118e+27 0.001 10 25000 1.543e+14 178 5 1 1 
-1.58157e+15 -4.37925e-13 -3.68395e-24 4.97118e+27 0.001 10 25000 1.543e+14 179 5 1 1 
-1.50442e+15 4.77863e-13 3.68395e-24 4.97118e+27 0.001 10 25000 1.543e+14 180 5 1 1 
-1.42727e+15 9.36569e-13 -7.36791e-24 4.97118e+27 0.001 10 25000 1.543e+14 181 5 1 1 
-1.35012e+15 -4.82451e-13 -1.47358e-23 4.97118e+27 0.001 10 25000 1.543e+14 182 5 1 1 
-1.27297e+15 -4.34455e-12 -3.31556e-23 4.97118e+27 0.001 10 25000 1.543e+14 183 3 1 1 
-1.19582e+15 -2.46278e-12 6.26272e-23 4.97118e+27 0.001 10 25000 1.543e+14 184 3 1 1 
-1.11867e+15 6.08277e-13 3.68395e-24 4.97118e+27 0.001 10 25000 1.543e+14 185 5 1 1 
-1.04152e+15 -1.40386e-12 -7.36791e-24 4.97118e+27 0.001 10 25000 1.543e+14 186 4 1 1 
-9.64375e+14 -1.94824e-12 -1.47358e-23 4.97118e+27 0.001 10 25000 1.543e+14 187 3 1 1 
-8.87225e+14 -8.13789e-13 3.31556e-23 4.97118e+27 0.001 10 25000 1.543e+14 188 4 1 1 
-8.10075e+14 -3.18254e-12 -5.89433e-23 4.97118e+27 0.001 10 25000 1.543e+14 189 4 1 1 
-7.32925e+14 -2.65583e-12 4.78914e-23 4.97118e+27 0.001 10 25000 1.543e+14 190 3 1 1 
-6.55775e+14 1.01423e-13 -3.13136e-23 4.97118e+27 0.001 10 25000 1.543e+14 191 5 1 1 
-5.78625e+14 -1.13342e-12 1.28938e-23 4.97118e+27 0.001 10 25000 1.543e+14 192 5 1 1 
-5.01475e+14 -2.53329e-12 3.68395e-24 4.97118e+27 0.001 10 25000 1.543e+14 193 4 1 1 
-4.24325e+14 4.64806e-13 -1.84198e-24 4.97118e+27 0.001 10 25000 1.543e+14 194 3 1 1 
-3.47175e+14 -7.23722e-14 1.84198e-24 4.97118e+27 0.001 10 25000 1.543e+14 195 5 1 1 
-2.70025e+14 2.20837e-13 -2.87579e-39 4.97118e+27 0.001 10 25000 1.543e+14 196 5 1 1 
-1.92875e+14 6.05809e-13 3.68395e-24 4.97118e+27 0.001 10 25000 1.543e+14 197 3 1 1 
-1.15725e+14 2.9968e-13 5.52593e-24 4.97118e+27 0.001 10 25000 1.543e+14 198 4 1 1 
-3.8575e+13 -1.56733e-14 -9.20989e-24 4.97118e+27 0.001 10 25000 1.543e+14 199 4 1 1 
3.8575e+13 1.48268e-13 1.10519e-23 4.97118e+27 0.001 10 25000 1.543e+14 200 3 1 1 
1.15725e+14 4.35568e-13 -3.68395e-24 4.97118e+27 0.001 10 25000 1.543e+14 201 4 1 1 
1.92875e+14 3.47609e-13 -7.36791e-24 4.97118e+27 0.001 10 25000 1.543e+14 202 3 1 1 
2.70025e+14 1.45085e-12 7.36791e-24 4.97118e+27 0.001 10 25000 1.543e+14 203 4 1 1 
3.47175e+14 -6.71006e-13 -3.68395e-24 4.97118e+27 0.001 10 25000 1.543e+14 204 5 1 1 
4.24325e+14 -3.83337e-15 1.10519e-23 4.97118e+27 0.001 10 25000 1.543e+14 205 5 1 1 
5.01475e+14 -6.62243e-13 -1.47358e-23 4.97118e+27 0.001 10 25000 1.543e+14 206 5 1 1 
5.78625e+14 1.75504e-12 -3.68395e-24 4.97118e+27 0.001 10 25000 1.543e+14 207 4 1 1 
6.55775e+14 1.08125e-12 -1.11836e-38 4.97118e+27 0.001 10 25000 1.543e+14 208 5 1 1 
7.32925e+14 -1.00805e-12 -5.52593e-24 4.97118e+27 0.001 10 25000 1.543e+14 209 4 1 1 
8.10075e+14 1.64634e-12 -1.84198e-24 4.97118e+27 0.001 10 25000 1.543e+14 210 4 1 1 
8.87225e+14 -2.46629e-12 3.68395e-24 4.97118e+27 0.001 10 25000 1.543e+14 211 3 1 1 
9.64375e+14 5.4349e-12 7.36791e-24 4.97118e+27 0.001 10 25000 1.543e+14 212 4 1 1 
1.04153e+15 1.90804e-12 6.0072e-38 4.97118e+27 0.001 10 25000 1.543e+14 213 5 1 1 
1.11868e+15 2.02458e-12 -1.27813e-39 4.97118e+27 0.001 10 25000 1.543e+14 214 5 1 1 
1.19583e+15 1.49681e-12 -3.63266e-55 4.97118e+27 0.001 10 25000 1.543e+14 215 5 1 1 
