# Time [s]: 6.00276e+12
# Columns: pos [pc], vel [pc/s], acc [pc/s^2], mass [Msun], dens [g/cm^3], pres [barye], ene [erg/g], sml [pc], id, neighbor, alpha, gradh, ...additional?
4.23162e+16 -673.192 5.99065e-14 4.97118e+27 0.000506954 4.40347 21715.4 3.04367e+14 0 4 1 0.994706 
4.24648e+16 -673.204 6.62332e-14 4.97118e+27 0.000531049 4.11658 19379.5 2.90557e+14 1 4 1 0.999667 
4.26069e+16 -673.216 7.28076e-14 4.97118e+27 0.000544181 4.27136 19622.9 2.83545e+14 2 4 1 0.999987 
4.27483e+16 -673.228 7.99642e-14 4.97118e+27 0.00054581 4.2889 19644.6 2.82699e+14 3 4 1 0.999999 
4.28896e+16 -673.242 8.7868e-14 4.97118e+27 0.000546231 4.29146 19641.2 2.82481e+14 4 4 1 1 
4.30308e+16 -673.256 9.66724e-14 4.97118e+27 0.000546333 4.29202 19640.1 2.82429e+14 5 4 1 1 
4.3172e+16 -673.272 1.06503e-13 4.97118e+27 0.000546362 4.29206 19639.3 2.82413e+14 6 4 1 1 
4.33132e+16 -673.289 1.17399e-13 4.97118e+27 0.000546376 4.29199 19638.4 2.82406e+14 7 4 1 1 
4.34544e+16 -673.308 1.2934e-13 4.97118e+27 0.000546383 4.29189 19637.7 2.82402e+14 8 4 1 1 
4.35956e+16 -673.328 1.42328e-13 4.97118e+27 0.000546387 4.29179 19637.1 2.824e+14 9 4 1 1 
4.37368e+16 -673.349 1.56499e-13 4.97118e+27 0.000546389 4.29166 19636.5 2.824e+14 10 3 1 1 
4.3878e+16 -673.373 1.72208e-13 4.97118e+27 0.000546387 4.29153 19636 2.82401e+14 11 4 1 1 
4.40192e+16 -673.399 1.90019e-13 4.97118e+27 0.000546382 4.29139 19635.5 2.82403e+14 12 4 1 1 
4.41604e+16 -673.428 2.10494e-13 4.97118e+27 0.000546375 4.29123 19635 2.82407e+14 13 4 1 1 
4.43016e+16 -673.46 2.33945e-13 4.97118e+27 0.000546365 4.29105 19634.5 2.82412e+14 14 4 1 1 
4.44429e+16 -673.496 2.60496e-13 4.97118e+27 0.000546352 4.29084 19634.1 2.82418e+14 15 4 1 1 
4.45841e+16 -673.535 2.90451e-13 4.97118e+27 0.000546337 4.29062 19633.6 2.82426e+14 16 4 1 1 
4.47253e+16 -673.578 3.24432e-13 4.97118e+27 0.000546319 4.29037 19633.1 2.82436e+14 17 4 1 1 
4.48665e+16 -673.627 3.63188e-13 4.97118e+27 0.000546297 4.29009 19632.6 2.82447e+14 18 4 1 1 
4.50077e+16 -673.681 4.07382e-13 4.97118e+27 0.000546272 4.28977 19632 2.8246e+14 19 4 1 1 
4.5149e+16 -673.742 4.57315e-13 4.97118e+27 0.000546243 4.28942 19631.5 2.82475e+14 20 4 1 1 
4.52902e+16 -673.81 5.12916e-13 4.97118e+27 0.00054621 4.28902 19630.8 2.82492e+14 21 4 1 1 
4.54315e+16 -673.887 5.75169e-13 4.97118e+27 0.000546172 4.28858 19630.1 2.82512e+14 22 4 1 1 
4.55727e+16 -673.973 6.47693e-13 4.97118e+27 0.000546129 4.28807 19629.4 2.82534e+14 23 4 1 1 
4.5714e+16 -674.07 7.35121e-13 4.97118e+27 0.00054608 4.2875 19628.6 2.8256e+14 24 4 1 1 
4.58553e+16 -674.18 8.40979e-13 4.97118e+27 0.000546022 4.28685 19627.6 2.82589e+14 25 4 1 1 
4.59966e+16 -674.307 9.71754e-13 4.97118e+27 0.000545955 4.28609 19626.6 2.82624e+14 26 4 1 1 
4.61379e+16 -674.456 1.14122e-12 4.97118e+27 0.000545876 4.2852 19625.4 2.82665e+14 27 4 1 1 
4.62792e+16 -674.633 1.3635e-12 4.97118e+27 0.000545781 4.28414 19623.9 2.82714e+14 28 4 1 1 
-1.52994e+16 -674.845 1.64605e-12 4.97118e+27 0.000545666 4.28286 19622.2 2.82774e+14 29 4 1 1 
-1.5158e+16 -675.103 1.99641e-12 4.97118e+27 0.000545526 4.28131 19620.1 2.82846e+14 30 4 1 1 
-1.50165e+16 -675.415 2.41758e-12 4.97118e+27 0.000545357 4.27944 19617.6 2.82934e+14 31 4 1 1 
-1.48751e+16 -675.787 2.87835e-12 4.97118e+27 0.000545157 4.27723 19614.6 2.83038e+14 32 4 1 1 
-1.47335e+16 -676.22 3.30886e-12 4.97118e+27 0.000544927 4.27469 19611.3 2.83157e+14 33 4 1 0.999999 
-1.45919e+16 -676.703 3.63563e-12 4.97118e+27 0.000544676 4.27192 19607.6 2.83288e+14 34 4 1 0.999999 
-1.44502e+16 -677.212 3.77648e-12 4.97118e+27 0.000544418 4.26908 19603.8 2.83422e+14 35 4 1 0.999999 
-1.43085e+16 -677.702 3.58561e-12 4.97118e+27 0.000544175 4.2664 19600.3 2.83548e+14 36 4 1 0.999999 
-1.41667e+16 -678.122 2.96014e-12 4.97118e+27 0.000543974 4.26417 19597.3 2.83653e+14 37 4 1 1 
-1.40248e+16 -678.429 1.60089e-12 4.97118e+27 0.000543851 4.26282 19595.5 2.83717e+14 38 4 1 1 
-1.3883e+16 -678.555 2.84865e-12 4.97118e+27 0.000543783 4.26204 19594.5 2.83753e+14 39 5 1 0.999998 
-1.37411e+16 -678.505 -8.5011e-12 4.97118e+27 0.000544143 4.26593 19599.5 2.83565e+14 40 4 1 0.999953 
-1.35994e+16 -675.074 -4.30142e-11 4.97118e+27 0.000546067 4.28702 19627.1 2.82566e+14 41 4 1 0.999801 
-1.34585e+16 -666.901 -7.7412e-11 4.97118e+27 0.000550276 4.33337 19687.5 2.80404e+14 42 4 1 0.999606 
-1.3319e+16 -654.828 -1.03063e-10 4.97118e+27 0.000556492 4.40208 19776.2 2.77272e+14 43 4 1 0.999459 
-1.31812e+16 -640.327 -1.17831e-10 4.97118e+27 0.000564059 4.48613 19883.4 2.73553e+14 44 4 1 0.999391 
-1.30454e+16 -624.74 -1.24235e-10 4.97118e+27 0.000572323 4.57843 19999.4 2.69603e+14 45 4 1 0.999401 
-1.29116e+16 -609.145 -1.22507e-10 4.97118e+27 0.000580726 4.67283 20116.3 2.65702e+14 46 4 1 0.999459 
-1.27797e+16 -594.282 -1.1662e-10 4.97118e+27 0.000588867 4.7648 20228.6 2.62028e+14 47 4 1 0.999525 
-1.26496e+16 -580.444 -1.10165e-10 4.97118e+27 0.000596593 4.85254 20334.3 2.58635e+14 48 4 1 0.999564 
-1.2521e+16 -567.331 -1.08454e-10 4.97118e+27 0.00060403 4.9374 20435.3 2.55451e+14 49 4 1 0.999569 
-1.23941e+16 -554.342 -1.11408e-10 4.97118e+27 0.000611467 5.0227 20535.5 2.52344e+14 50 4 1 0.999546 
-1.22687e+16 -540.95 -1.17771e-10 4.97118e+27 0.000619159 5.11137 20638.4 2.49209e+14 51 4 1 0.999511 
-1.21449e+16 -526.989 -1.25055e-10 4.97118e+27 0.000627247 5.20507 20745.8 2.45996e+14 52 4 1 0.999476 
-1.20227e+16 -512.416 -1.3206e-10 4.97118e+27 0.000635749 5.30412 20857.9 2.42706e+14 53 4 1 0.999451 
-1.19022e+16 -497.443 -1.37136e-10 4.97118e+27 0.000644598 5.40777 20973.5 2.39374e+14 54 4 1 0.999438 
-1.17833e+16 -482.189 -1.41096e-10 4.97118e+27 0.000653697 5.51494 21091.4 2.36042e+14 55 4 1 0.999433 
-1.16661e+16 -466.832 -1.44093e-10 4.97118e+27 0.000662974 5.62481 21210.6 2.32739e+14 56 4 1 0.999437 
-1.15505e+16 -451.466 -1.46113e-10 4.97118e+27 0.000672365 5.73667 21330.3 2.29488e+14 57 4 1 0.999444 
-1.14366e+16 -436.158 -1.48033e-10 4.97118e+27 0.000681831 5.85006 21449.9 2.26302e+14 58 4 1 0.999455 
-1.13242e+16 -420.965 -1.48898e-10 4.97118e+27 0.000691337 5.96456 21569 2.23191e+14 59 4 1 0.999467 
-1.12134e+16 -405.888 -1.50143e-10 4.97118e+27 0.00070086 6.0799 21687.3 2.20158e+14 60 4 1 0.999481 
-1.11041e+16 -390.988 -1.50858e-10 4.97118e+27 0.000710393 6.19598 21804.8 2.17204e+14 61 4 1 0.999494 
-1.09962e+16 -376.234 -1.51618e-10 4.97118e+27 0.000719922 6.31265 21921.3 2.14329e+14 62 4 1 0.999509 
-1.08897e+16 -361.679 -1.52145e-10 4.97118e+27 0.000729442 6.42981 22036.8 2.11532e+14 63 4 1 0.999523 
-1.07846e+16 -347.28 -1.52467e-10 4.97118e+27 0.00073894 6.54732 22151.1 2.08813e+14 64 4 1 0.999536 
-1.06809e+16 -333.055 -1.53172e-10 4.97118e+27 0.000748421 6.66523 22264.4 2.06167e+14 65 4 1 0.999549 
-1.05785e+16 -319.009 -1.53533e-10 4.97118e+27 0.000757886 6.78353 22376.6 2.03593e+14 66 4 1 0.999562 
-1.04773e+16 -305.138 -1.53878e-10 4.97118e+27 0.000767327 6.90213 22487.6 2.01088e+14 67 4 1 0.999574 
-1.03774e+16 -291.438 -1.54459e-10 4.97118e+27 0.000776748 7.02106 22597.6 1.98649e+14 68 4 1 0.999587 
-1.02786e+16 -277.891 -1.54452e-10 4.97118e+27 0.000786142 7.14022 22706.6 1.96275e+14 69 4 1 0.999598 
-1.01811e+16 -264.506 -1.54983e-10 4.97118e+27 0.000795509 7.2596 22814.4 1.93964e+14 70 4 1 0.999609 
-1.00847e+16 -251.308 -1.55292e-10 4.97118e+27 0.000804855 7.37928 22921.2 1.91712e+14 71 4 1 0.99962 
-9.98937e+15 -238.242 -1.55468e-10 4.97118e+27 0.000814173 7.49916 23027 1.89517e+14 72 4 1 0.999631 
-9.89515e+15 -225.351 -1.55872e-10 4.97118e+27 0.000823465 7.61926 23131.7 1.87379e+14 73 4 1 0.999641 
-9.80199e+15 -212.611 -1.55749e-10 4.97118e+27 0.000832725 7.73947 23235.4 1.85295e+14 74 4 1 0.999651 
-9.70985e+15 -200.007 -1.56239e-10 4.97118e+27 0.000841955 7.85984 23338.1 1.83264e+14 75 4 1 0.99966 
-9.61872e+15 -187.577 -1.56381e-10 4.97118e+27 0.000851162 7.98042 23439.8 1.81282e+14 76 4 1 0.99967 
-9.52856e+15 -175.279 -1.56444e-10 4.97118e+27 0.000860336 8.1011 23540.5 1.79349e+14 77 4 1 0.999678 
-9.43936e+15 -163.128 -1.56716e-10 4.97118e+27 0.00086948 8.2219 23640.3 1.77462e+14 78 4 1 0.999687 
-9.35109e+15 -151.124 -1.56633e-10 4.97118e+27 0.000878592 8.34277 23739.1 1.75622e+14 79 4 1 0.999696 
-9.26374e+15 -139.254 -1.5676e-10 4.97118e+27 0.000887668 8.46367 23836.9 1.73826e+14 80 4 1 0.999704 
-9.17726e+15 -127.527 -1.56935e-10 4.97118e+27 0.000896715 8.58467 23933.7 1.72073e+14 81 4 1 0.999712 
-9.09166e+15 -115.952 -1.56809e-10 4.97118e+27 0.000905725 8.70568 24029.6 1.70361e+14 82 4 1 0.99972 
-9.0069e+15 -104.509 -1.56514e-10 4.97118e+27 0.00091469 8.82655 24124.5 1.68691e+14 83 4 1 0.999728 
-8.92296e+15 -93.2239 -1.56344e-10 4.97118e+27 0.000923609 8.94727 24218.3 1.67062e+14 84 4 1 0.999735 
-8.83983e+15 -82.0642 -1.56886e-10 4.97118e+27 0.000932497 9.06805 24311.2 1.6547e+14 85 4 1 0.999743 
-8.75749e+15 -70.9893 -1.56666e-10 4.97118e+27 0.000941346 9.18879 24403.3 1.63914e+14 86 4 1 0.999759 
-8.67591e+15 -60.2221 -1.51391e-10 4.97118e+27 0.000950024 9.30761 24493 1.62417e+14 87 4 1 0.999775 
-8.59507e+15 -49.9966 -1.46358e-10 4.97118e+27 0.000958461 9.42335 24579.6 1.60987e+14 88 4 1 0.999757 
-8.51492e+15 -39.5699 -1.63279e-10 4.97118e+27 0.000967158 9.54318 24668.6 1.5954e+14 89 4 1 0.999724 
-8.43553e+15 -27.8109 -1.82739e-10 4.97118e+27 0.000976542 9.67368 24764.6 1.58007e+14 90 4 1 0.999811 
-8.35691e+15 -16.9428 -1.29549e-10 4.97118e+27 0.000984946 9.79103 24850 1.56658e+14 91 4 1 0.999941 
-8.27887e+15 -11.3672 -4.24176e-11 4.97118e+27 0.00099017 9.86256 24901.4 1.55832e+14 92 4 1 0.999915 
-8.20108e+15 -7.37127 -1.08102e-10 4.97118e+27 0.000995078 9.92946 24949.6 1.55063e+14 93 4 1 0.999643 
-8.1238e+15 5.36114 -2.78076e-10 4.97118e+27 0.00100523 10.0733 25052.8 1.53496e+14 94 4 1 0.9996 
-8.04758e+15 22.7664 -2.1896e-10 4.97118e+27 0.00101771 10.2511 25178.3 1.51616e+14 95 4 1 0.99996 
-7.97218e+15 29.7564 -2.27529e-11 4.97118e+27 0.00102416 10.3415 25241.3 1.5066e+14 96 4 1 1 
-7.89692e+15 29.2553 2.10303e-11 4.97118e+27 0.00102442 10.3439 25242.9 1.50622e+14 97 3 1 1 
-7.82156e+15 27.3803 3.26798e-11 4.97118e+27 0.00102278 10.3206 25226.6 1.50864e+14 98 4 1 0.999994 
-7.74605e+15 24.9438 4.0238e-11 4.97118e+27 0.00102062 10.2901 25205.3 1.51183e+14 99 4 1 0.999988 
-7.67038e+15 22.1364 4.53158e-11 4.97118e+27 0.00101818 10.2556 25181.1 1.51545e+14 100 4 1 0.999983 
-7.59451e+15 19.1278 4.76446e-11 4.97118e+27 0.00101561 10.2193 25155.6 1.51928e+14 101 4 1 0.999981 
-7.51845e+15 16.088 4.73288e-11 4.97118e+27 0.00101305 10.1832 25130.2 1.52312e+14 102 4 1 0.999981 
-7.4422e+15 13.171 4.47027e-11 4.97118e+27 0.00101063 10.1491 25106 1.52678e+14 103 4 1 0.999982 
-7.36577e+15 10.4992 4.03448e-11 4.97118e+27 0.00100843 10.1181 25084.1 1.53011e+14 104 4 1 0.999985 
-7.28919e+15 8.15407 3.49312e-11 4.97118e+27 0.00100651 10.0913 25065 1.53301e+14 105 4 1 0.999989 
-7.21247e+15 6.17453 2.91163e-11 4.97118e+27 0.00100491 10.0688 25049 1.53546e+14 106 4 1 0.999992 
-7.13564e+15 4.56259 2.34374e-11 4.97118e+27 0.00100362 10.0506 25036.1 1.53744e+14 107 4 1 0.999995 
-7.05872e+15 3.29276 1.82693e-11 4.97118e+27 0.0010026 10.0364 25025.9 1.539e+14 108 4 1 0.999997 
-6.98174e+15 2.32266 1.38227e-11 4.97118e+27 0.00100183 10.0256 25018.2 1.54018e+14 109 4 1 0.999998 
-6.90471e+15 1.60243 1.01712e-11 4.97118e+27 0.00100126 10.0176 25012.5 1.54106e+14 110 4 1 0.999999 
-6.82763e+15 1.08186 7.29026e-12 4.97118e+27 0.00100085 10.0118 25008.4 1.54169e+14 111 4 1 0.999999 
-6.75054e+15 0.71508 5.09624e-12 4.97118e+27 0.00100056 10.0078 25005.6 1.54214e+14 112 4 1 1 
-6.67342e+15 0.462875 3.47783e-12 4.97118e+27 0.00100036 10.005 25003.6 1.54244e+14 113 4 1 1 
-6.59629e+15 0.293495 2.31864e-12 4.97118e+27 0.00100023 10.0032 25002.3 1.54265e+14 114 4 1 1 
-6.51916e+15 0.182319 1.51099e-12 4.97118e+27 0.00100014 10.002 25001.4 1.54278e+14 115 4 1 1 
-6.44201e+15 0.110969 9.62868e-13 4.97118e+27 0.00100009 10.0012 25000.9 1.54287e+14 116 4 1 1 
-6.36487e+15 0.0661808 6.00169e-13 4.97118e+27 0.00100005 10.0007 25000.5 1.54292e+14 117 4 1 1 
-6.28772e+15 0.0386753 3.65994e-13 4.97118e+27 0.00100003 10.0004 25000.3 1.54295e+14 118 4 1 1 
-6.21057e+15 0.0221465 2.18391e-13 4.97118e+27 0.00100002 10.0002 25000.2 1.54297e+14 119 4 1 1 
-6.13342e+15 0.0124261 1.27526e-13 4.97118e+27 0.00100001 10.0001 25000.1 1.54299e+14 120 4 1 1 
-6.05627e+15 0.00683132 7.28784e-14 4.97118e+27 0.00100001 10.0001 25000.1 1.54299e+14 121 4 1 1 
-5.97912e+15 0.0036795 4.07616e-14 4.97118e+27 0.001 10 25000 1.543e+14 122 4 1 1 
-5.90197e+15 0.00194159 2.23132e-14 4.97118e+27 0.001 10 25000 1.543e+14 123 4 1 1 
-5.82482e+15 0.00100363 1.19544e-14 4.97118e+27 0.001 10 25000 1.543e+14 124 4 1 1 
-5.74767e+15 0.000508146 6.26815e-15 4.97118e+27 0.001 10 25000 1.543e+14 125 4 1 1 
-5.67052e+15 0.000251976 3.21642e-15 4.97118e+27 0.001 10 25000 1.543e+14 126 4 1 1 
-5.59337e+15 0.000122356 1.6151e-15 4.97118e+27 0.001 10 25000 1.543e+14 127 4 1 1 
-5.51622e+15 5.81728e-05 7.93559e-16 4.97118e+27 0.001 10 25000 1.543e+14 128 4 1 1 
-5.43907e+15 2.70752e-05 3.81473e-16 4.97118e+27 0.001 10 25000 1.543e+14 129 4 1 1 
-5.36192e+15 1.23339e-05 1.79389e-16 4.97118e+27 0.001 10 25000 1.543e+14 130 4 1 1 
-5.28477e+15 5.49803e-06 8.25092e-17 4.97118e+27 0.001 10 25000 1.543e+14 131 4 1 1 
-5.20762e+15 2.39768e-06 3.71111e-17 4.97118e+27 0.001 10 25000 1.543e+14 132 4 1 1 
-5.13047e+15 1.02267e-06 1.63193e-17 4.97118e+27 0.001 10 25000 1.543e+14 133 4 1 1 
-5.05332e+15 4.26495e-07 7.01485e-18 4.97118e+27 0.001 10 25000 1.543e+14 134 4 1 1 
-4.97617e+15 1.73841e-07 2.94581e-18 4.97118e+27 0.001 10 25000 1.543e+14 135 4 1 1 
-4.89902e+15 6.92357e-08 1.20884e-18 4.97118e+27 0.001 10 25000 1.543e+14 136 4 1 1 
-4.82187e+15 2.69192e-08 4.84237e-19 4.97118e+27 0.001 10 25000 1.543e+14 137 4 1 1 
-4.74472e+15 1.02199e-08 1.89497e-19 4.97118e+27 0.001 10 25000 1.543e+14 138 4 1 1 
-4.66757e+15 3.79789e-09 7.22479e-20 4.97118e+27 0.001 10 25000 1.543e+14 139 4 1 1 
-4.59042e+15 1.36848e-09 2.66258e-20 4.97118e+27 0.001 10 25000 1.543e+14 140 4 1 1 
-4.51327e+15 4.72988e-10 1.00959e-20 4.97118e+27 0.001 10 25000 1.543e+14 141 4 1 1 
-4.43612e+15 1.69416e-10 3.29714e-21 4.97118e+27 0.001 10 25000 1.543e+14 142 4 1 1 
-4.35897e+15 4.64499e-11 1.10887e-21 4.97118e+27 0.001 10 25000 1.543e+14 143 4 1 1 
-4.28182e+15 1.43205e-11 5.41541e-22 4.97118e+27 0.001 10 25000 1.543e+14 144 4 1 1 
-4.20467e+15 3.49296e-13 4.05235e-23 4.97118e+27 0.001 10 25000 1.543e+14 145 5 1 1 
-4.12752e+15 3.49196e-14 -1.27813e-39 4.97118e+27 0.001 10 25000 1.543e+14 146 5 1 1 
-4.05037e+15 1.37748e-44 0 4.97118e+27 0.001 10 25000 1.543e+14 147 5 1 1 
-3.97322e+15 0 0 4.97118e+27 0.001 10 25000 1.543e+14 148 5 1 1 
-3.89607e+15 0 0 4.97118e+27 0.001 10 25000 1.543e+14 149 5 1 1 
-3.81892e+15 0 0 4.97118e+27 0.001 10 25000 1.543e+14 150 5 1 1 
-3.74177e+15 0 0 4.97118e+27 0.001 10 25000 1.543e+14 151 5 1 1 
-3.66462e+15 0 0 4.97118e+27 0.001 10 25000 1.543e+14 152 5 1 1 
-3.58747e+15 0 0 4.97118e+27 0.001 10 25000 1.543e+14 153 5 1 1 
-3.51032e+15 0 0 4.97118e+27 0.001 10 25000 1.543e+14 154 5 1 1 
-3.43317e+15 0 0 4.97118e+27 0.001 10 25000 1.543e+14 155 5 1 1 
-3.35602e+15 0 0 4.97118e+27 0.001 10 25000 1.543e+14 156 5 1 1 
-3.27887e+15 0 0 4.97118e+27 0.001 10 25000 1.543e+14 157 5 1 1 
-3.20172e+15 0 0 4.97118e+27 0.001 10 25000 1.543e+14 158 5 1 1 
-3.12457e+15 0 0 4.97118e+27 0.001 10 25000 1.543e+14 159 5 1 1 
-3.04742e+15 0 0 4.97118e+27 0.001 10 25000 1.543e+14 160 5 1 1 
-2.97027e+15 0 0 4.97118e+27 0.001 10 25000 1.543e+14 161 5 1 1 
-2.89312e+15 0 0 4.97118e+27 0.001 10 25000 1.543e+14 162 5 1 1 
-2.81597e+15 0 0 4.97118e+27 0.001 10 25000 1.543e+14 163 5 1 1 
-2.73882e+15 0 0 4.97118e+27 0.001 10 25000 1.543e+14 164 5 1 1 
-2.66167e+15 0 0 4.97118e+27 0.001 10 25000 1.543e+14 165 5 1 1 
-2.58452e+15 0 0 4.97118e+27 0.001 10 25000 1.543e+14 166 5 1 1 
-2.50737e+15 0 0 4.97118e+27 0.001 10 25000 1.543e+14 167 5 1 1 
-2.43022e+15 0 0 4.97118e+27 0.001 10 25000 1.543e+14 168 5 1 1 
-2.35307e+15 0 0 4.97118e+27 0.001 10 25000 1.543e+14 169 5 1 1 
-2.27592e+15 0 0 4.97118e+27 0.001 10 25000 1.543e+14 170 5 1 1 
-2.19877e+15 -6.88816e-45 0 4.97118e+27 0.001 10 25000 1.543e+14 171 5 1 1 
-2.12162e+15 -3.49271e-14 -3.63266e-55 4.97118e+27 0.001 10 25000 1.543e+14 172 5 1 1 
-2.04447e+15 -1.92018e-13 -1.84198e-24 4.97118e+27 0.001 10 25000 1.543e+14 173 5 1 1 
-1.96732e+15 -5.7555e-13 -9.20989e-24 4.97118e+27 0.001 10 25000 1.543e+14 174 5 1 1 
-1.89017e+15 -1.5521e-12 -1.28938e-23 4.97118e+27 0.001 10 25000 1.543e+14 175 5 1 1 
-1.81302e+15 -4.7802e-12 -3.68395e-23 4.97118e+27 0.001 10 25000 1.543e+14 176 3 1 1 
-1.73587e+15 -2.00005e-12 7.18371e-23 4.97118e+27 0.001 10 25000 1.543e+14 177 3 1 1 
-1.65872e+15 2.91169e-13 -1.10519e-23 4.97118e+27 0.001 10 25000 1.543e+14 178 5 1 1 
-1.58157e+15 -3.3313e-13 -1.27813e-39 4.97118e+27 0.001 10 25000 1.543e+14 179 5 1 1 
-1.50442e+15 1.98469e-13 3.68395e-24 4.97118e+27 0.001 10 25000 1.543e+14 180 5 1 1 
-1.42727e+15 1.14617e-12 -2.90613e-54 4.97118e+27 0.001 10 25000 1.543e+14 181 5 1 1 
-1.35012e+15 3.20868e-13 -3.68395e-24 4.97118e+27 0.001 10 25000 1.543e+14 182 5 1 1 
-1.27297e+15 -1.27086e-12 -2.21037e-23 4.97118e+27 0.001 10 25000 1.543e+14 183 5 1 1 
-1.19582e+15 -5.06586e-12 -3.49976e-23 4.97118e+27 0.001 10 25000 1.543e+14 184 3 1 1 
-1.11867e+15 -2.72598e-12 9.76248e-23 4.97118e+27 0.001 10 25000 1.543e+14 185 4 1 1 
-1.04152e+15 6.26781e-14 -3.31556e-23 4.97118e+27 0.001 10 25000 1.543e+14 186 4 1 1 
-9.64375e+14 -8.65312e-13 3.77797e-53 4.97118e+27 0.001 10 25000 1.543e+14 187 3 1 1 
-8.87225e+14 -2.71774e-12 -5.52593e-24 4.97118e+27 0.001 10 25000 1.543e+14 188 4 1 1 
-8.10075e+14 -1.1042e-12 -5.52593e-24 4.97118e+27 0.001 10 25000 1.543e+14 189 4 1 1 
-7.32925e+14 -2.41146e-12 -1.10519e-23 4.97118e+27 0.001 10 25000 1.543e+14 190 3 1 1 
-6.55775e+14 -3.87397e-13 1.28938e-23 4.97118e+27 0.001 10 25000 1.543e+14 191 4 1 1 
-5.78625e+14 -1.30808e-12 1.84198e-24 4.97118e+27 0.001 10 25000 1.543e+14 192 5 1 1 
-5.01475e+14 -2.70792e-12 -9.26643e-39 4.97118e+27 0.001 10 25000 1.543e+14 193 4 1 1 
-4.24325e+14 8.31464e-13 -7.36791e-24 4.97118e+27 0.001 10 25000 1.543e+14 194 3 1 1 
-3.47175e+14 -4.3903e-13 7.36791e-24 4.97118e+27 0.001 10 25000 1.543e+14 195 5 1 1 
-2.70025e+14 2.20837e-13 -2.87579e-39 4.97118e+27 0.001 10 25000 1.543e+14 196 5 1 1 
-1.92875e+14 4.66112e-13 3.68395e-24 4.97118e+27 0.001 10 25000 1.543e+14 197 3 1 1 
-1.15725e+14 -3.21561e-14 2.87579e-39 4.97118e+27 0.001 10 25000 1.543e+14 198 4 1 1 
-3.8575e+13 7.18027e-14 3.68395e-24 4.97118e+27 0.001 10 25000 1.543e+14 199 4 1 1 
3.8575e+13 2.17992e-13 3.68395e-24 4.97118e+27 0.001 10 25000 1.543e+14 200 5 1 1 
1.15725e+14 5.13427e-14 -1.10519e-23 4.97118e+27 0.001 10 25000 1.543e+14 201 3 1 1 
1.92875e+14 8.36729e-13 1.47358e-23 4.97118e+27 0.001 10 25000 1.543e+14 202 4 1 1 
2.70025e+14 7.69833e-13 -1.84198e-24 4.97118e+27 0.001 10 25000 1.543e+14 203 4 1 1 
3.47175e+14 2.19419e-13 -1.84198e-24 4.97118e+27 0.001 10 25000 1.543e+14 204 5 1 1 
4.24325e+14 -1.40089e-12 -1.10519e-23 4.97118e+27 0.001 10 25000 1.543e+14 205 4 1 1 
5.01475e+14 7.34839e-13 3.19532e-40 4.97118e+27 0.001 10 25000 1.543e+14 206 4 1 1 
5.78625e+14 1.89474e-12 -3.68395e-24 4.97118e+27 0.001 10 25000 1.543e+14 207 5 1 1 
6.55775e+14 1.36065e-12 -1.78938e-38 4.97118e+27 0.001 10 25000 1.543e+14 208 5 1 1 
7.32925e+14 -7.11204e-13 -7.36791e-24 4.97118e+27 0.001 10 25000 1.543e+14 209 4 1 1 
8.10075e+14 1.82096e-12 -1.84198e-24 4.97118e+27 0.001 10 25000 1.543e+14 210 4 1 1 
8.87225e+14 -2.48381e-12 -1.84198e-24 4.97118e+27 0.001 10 25000 1.543e+14 211 3 1 1 
9.64375e+14 4.82373e-12 9.20989e-24 4.97118e+27 0.001 10 25000 1.543e+14 212 4 1 1 
1.04153e+15 1.64617e-12 5.52593e-24 4.97118e+27 0.001 10 25000 1.543e+14 213 5 1 1 
1.11868e+15 2.02458e-12 -1.27813e-39 4.97118e+27 0.001 10 25000 1.543e+14 214 5 1 1 
1.19583e+15 1.49681e-12 -1.45306e-54 4.97118e+27 0.001 10 25000 1.543e+14 215 5 1 1 
1.27298e+15 1.02893e-12 1.45306e-54 4.97118e+27 0.001 10 25000 1.543e+14 216 5 1 1 
