# Time [s]: 6.1355e+12
# Columns: pos [pc], vel [pc/s], acc [pc/s^2], mass [Msun], dens [g/cm^3], pres [barye], ene [erg/g], sml [pc], id, neighbor, alpha, gradh, ...additional?
4.22268e+16 -673.185 5.52779e-14 4.97118e+27 0.000506959 4.40353 21715.4 3.04364e+14 0 4 1 0.994706 
4.23754e+16 -673.195 6.10855e-14 4.97118e+27 0.000531054 4.11663 19379.5 2.90554e+14 1 4 1 0.999667 
4.25175e+16 -673.206 6.71193e-14 4.97118e+27 0.000544187 4.27143 19623 2.83542e+14 2 4 1 0.999987 
4.2659e+16 -673.218 7.37359e-14 4.97118e+27 0.000545816 4.28897 19644.7 2.82696e+14 3 4 1 0.999999 
4.28002e+16 -673.231 8.10992e-14 4.97118e+27 0.000546238 4.29153 19641.3 2.82478e+14 4 4 1 1 
4.29415e+16 -673.244 8.92881e-14 4.97118e+27 0.00054634 4.2921 19640.3 2.82425e+14 5 4 1 1 
4.30827e+16 -673.259 9.83132e-14 4.97118e+27 0.00054637 4.29215 19639.4 2.82409e+14 6 4 1 1 
4.32239e+16 -673.274 1.08131e-13 4.97118e+27 0.000546384 4.29208 19638.6 2.82402e+14 7 4 1 1 
4.33651e+16 -673.291 1.18719e-13 4.97118e+27 0.000546393 4.292 19637.9 2.82398e+14 8 4 1 1 
4.35063e+16 -673.309 1.30169e-13 4.97118e+27 0.000546398 4.2919 19637.3 2.82395e+14 9 4 1 1 
4.36475e+16 -673.329 1.42753e-13 4.97118e+27 0.0005464 4.29179 19636.7 2.82394e+14 10 3 1 1 
4.37887e+16 -673.351 1.569e-13 4.97118e+27 0.000546399 4.29167 19636.1 2.82394e+14 11 4 1 1 
4.39299e+16 -673.375 1.73029e-13 4.97118e+27 0.000546396 4.29154 19635.7 2.82396e+14 12 4 1 1 
4.40711e+16 -673.402 1.91381e-13 4.97118e+27 0.00054639 4.29139 19635.2 2.82399e+14 13 4 1 1 
4.42123e+16 -673.431 2.12072e-13 4.97118e+27 0.000546381 4.29123 19634.8 2.82403e+14 14 4 1 1 
4.43535e+16 -673.463 2.35353e-13 4.97118e+27 0.000546371 4.29104 19634.3 2.82409e+14 15 4 1 1 
4.44947e+16 -673.498 2.61757e-13 4.97118e+27 0.000546357 4.29084 19633.9 2.82416e+14 16 4 1 1 
4.46359e+16 -673.538 2.91957e-13 4.97118e+27 0.000546341 4.29062 19633.4 2.82424e+14 17 4 1 1 
4.47771e+16 -673.581 3.26541e-13 4.97118e+27 0.000546322 4.29037 19632.9 2.82434e+14 18 4 1 1 
4.49183e+16 -673.63 3.65765e-13 4.97118e+27 0.0005463 4.29008 19632.4 2.82445e+14 19 4 1 1 
4.50595e+16 -673.685 4.09613e-13 4.97118e+27 0.000546275 4.28976 19631.9 2.82459e+14 20 4 1 1 
4.52008e+16 -673.746 4.58633e-13 4.97118e+27 0.000546245 4.28941 19631.3 2.82474e+14 21 4 1 1 
4.5342e+16 -673.815 5.14644e-13 4.97118e+27 0.000546212 4.28901 19630.7 2.82491e+14 22 4 1 1 
4.54833e+16 -673.891 5.79614e-13 4.97118e+27 0.000546174 4.28856 19630 2.82511e+14 23 4 1 1 
4.56245e+16 -673.978 6.5453e-13 4.97118e+27 0.00054613 4.28806 19629.3 2.82534e+14 24 4 1 1 
4.57658e+16 -674.075 7.41952e-13 4.97118e+27 0.000546079 4.28748 19628.5 2.8256e+14 25 4 1 1 
4.59071e+16 -674.187 8.4905e-13 4.97118e+27 0.000546021 4.28682 19627.5 2.8259e+14 26 4 1 1 
4.60484e+16 -674.315 9.84924e-13 4.97118e+27 0.000545953 4.28605 19626.5 2.82625e+14 27 4 1 1 
4.61897e+16 -674.466 1.15803e-12 4.97118e+27 0.000545873 4.28515 19625.2 2.82667e+14 28 4 1 1 
-1.5389e+16 -674.645 1.38086e-12 4.97118e+27 0.000545776 4.28407 19623.8 2.82717e+14 29 4 1 1 
-1.52476e+16 -674.86 1.66857e-12 4.97118e+27 0.000545659 4.28277 19622 2.82777e+14 30 4 1 1 
-1.51062e+16 -675.121 2.02342e-12 4.97118e+27 0.000545518 4.2812 19619.9 2.82851e+14 31 4 1 1 
-1.49647e+16 -675.435 2.43048e-12 4.97118e+27 0.000545348 4.27932 19617.4 2.82939e+14 32 4 1 1 
-1.48232e+16 -675.81 2.86968e-12 4.97118e+27 0.000545148 4.27711 19614.5 2.83043e+14 33 4 1 1 
-1.46817e+16 -676.242 3.29938e-12 4.97118e+27 0.00054492 4.2746 19611.1 2.83161e+14 34 4 1 0.999999 
-1.45401e+16 -676.719 3.61537e-12 4.97118e+27 0.000544671 4.27185 19607.5 2.8329e+14 35 4 1 0.999999 
-1.43984e+16 -677.216 3.68389e-12 4.97118e+27 0.000544418 4.26906 19603.8 2.83422e+14 36 4 1 0.999999 
-1.42567e+16 -677.696 3.44629e-12 4.97118e+27 0.000544183 4.26647 19600.4 2.83545e+14 37 4 1 0.999999 
-1.41149e+16 -678.103 2.89581e-12 4.97118e+27 0.000543989 4.26434 19597.5 2.83645e+14 38 4 1 1 
-1.3973e+16 -678.388 1.48941e-12 4.97118e+27 0.000543872 4.26304 19595.8 2.83707e+14 39 4 1 1 
-1.38311e+16 -678.511 2.80886e-12 4.97118e+27 0.000543808 4.26231 19594.8 2.8374e+14 40 5 1 0.999998 
-1.36893e+16 -678.425 -9.24465e-12 4.97118e+27 0.000544192 4.26646 19600.2 2.8354e+14 41 4 1 0.999952 
-1.35476e+16 -674.93 -4.28645e-11 4.97118e+27 0.00054613 4.2877 19628 2.82534e+14 42 4 1 0.999806 
-1.34067e+16 -666.834 -7.63569e-11 4.97118e+27 0.000550296 4.33358 19687.8 2.80395e+14 43 4 1 0.999619 
-1.32672e+16 -654.956 -1.01222e-10 4.97118e+27 0.000556413 4.40119 19775 2.77312e+14 44 4 1 0.999478 
-1.31294e+16 -640.749 -1.1558e-10 4.97118e+27 0.000563843 4.48371 19880.3 2.73658e+14 45 4 1 0.999412 
-1.29935e+16 -625.433 -1.21801e-10 4.97118e+27 0.000571952 4.57427 19994.2 2.69778e+14 46 4 1 0.999418 
-1.28596e+16 -610.08 -1.20738e-10 4.97118e+27 0.000580217 4.66709 20109.2 2.65935e+14 47 4 1 0.99947 
-1.27276e+16 -595.391 -1.15405e-10 4.97118e+27 0.000588256 4.75788 20220.2 2.62301e+14 48 4 1 0.999534 
-1.25973e+16 -581.701 -1.0902e-10 4.97118e+27 0.000595899 4.84463 20324.9 2.58936e+14 49 4 1 0.999576 
-1.24686e+16 -568.733 -1.06516e-10 4.97118e+27 0.000603232 4.92827 20424.5 2.55789e+14 50 4 1 0.999584 
-1.23415e+16 -555.968 -1.08964e-10 4.97118e+27 0.000610526 5.01188 20522.9 2.52733e+14 51 4 1 0.999566 
-1.22159e+16 -542.879 -1.14723e-10 4.97118e+27 0.000618041 5.09844 20623.5 2.4966e+14 52 4 1 0.999534 
-1.20918e+16 -529.277 -1.21669e-10 4.97118e+27 0.000625922 5.18969 20728.3 2.46516e+14 53 4 1 0.999501 
-1.19694e+16 -515.062 -1.28278e-10 4.97118e+27 0.000634197 5.286 20837.5 2.433e+14 54 4 1 0.999475 
-1.18485e+16 -500.435 -1.3358e-10 4.97118e+27 0.000642816 5.38684 20950.3 2.40038e+14 55 4 1 0.999461 
-1.17293e+16 -485.531 -1.37522e-10 4.97118e+27 0.000651691 5.49125 21065.5 2.36768e+14 56 4 1 0.999455 
-1.16117e+16 -470.502 -1.40632e-10 4.97118e+27 0.00066075 5.59841 21182.1 2.33522e+14 57 4 1 0.999458 
-1.14958e+16 -455.451 -1.42504e-10 4.97118e+27 0.000669925 5.70754 21299.3 2.30324e+14 58 4 1 0.999464 
-1.13814e+16 -440.427 -1.44454e-10 4.97118e+27 0.000679175 5.81817 21416.4 2.27187e+14 59 4 1 0.999474 
-1.12686e+16 -425.523 -1.45529e-10 4.97118e+27 0.000688473 5.92999 21533.2 2.24119e+14 60 4 1 0.999485 
-1.11573e+16 -410.726 -1.467e-10 4.97118e+27 0.000697794 6.04268 21649.3 2.21125e+14 61 4 1 0.999497 
-1.10475e+16 -396.095 -1.47413e-10 4.97118e+27 0.000707125 6.15611 21764.6 2.18208e+14 62 4 1 0.999511 
-1.09391e+16 -381.59 -1.48021e-10 4.97118e+27 0.000716451 6.27007 21879 2.15367e+14 63 4 1 0.999524 
-1.08321e+16 -367.269 -1.48721e-10 4.97118e+27 0.000725769 6.38453 21992.3 2.12602e+14 64 4 1 0.999537 
-1.07265e+16 -353.119 -1.49119e-10 4.97118e+27 0.000735074 6.49942 22104.7 2.09911e+14 65 4 1 0.99955 
-1.06222e+16 -339.134 -1.4971e-10 4.97118e+27 0.000744363 6.61469 22216 2.07291e+14 66 4 1 0.999562 
-1.05192e+16 -325.316 -1.50093e-10 4.97118e+27 0.000753635 6.73033 22326.3 2.04741e+14 67 4 1 0.999575 
-1.04174e+16 -311.651 -1.5023e-10 4.97118e+27 0.000762881 6.8462 22435.4 2.0226e+14 68 4 1 0.999586 
-1.03169e+16 -298.162 -1.51007e-10 4.97118e+27 0.000772108 6.9624 22543.5 1.99843e+14 69 4 1 0.999598 
-1.02176e+16 -284.835 -1.51118e-10 4.97118e+27 0.000781317 7.07894 22650.7 1.97487e+14 70 4 1 0.999609 
-1.01194e+16 -271.651 -1.51522e-10 4.97118e+27 0.0007905 7.19569 22756.8 1.95193e+14 71 4 1 0.99962 
-1.00224e+16 -258.648 -1.51746e-10 4.97118e+27 0.000799659 7.31267 22861.9 1.92957e+14 72 4 1 0.999631 
-9.92643e+15 -245.771 -1.51909e-10 4.97118e+27 0.000808789 7.42982 22965.9 1.90779e+14 73 4 1 0.99964 
-9.83157e+15 -233.059 -1.52486e-10 4.97118e+27 0.000817898 7.54723 23069 1.88654e+14 74 4 1 0.99965 
-9.73776e+15 -220.503 -1.52376e-10 4.97118e+27 0.000826981 7.66483 23171.2 1.86582e+14 75 4 1 0.999659 
-9.64498e+15 -208.083 -1.52762e-10 4.97118e+27 0.000836034 7.78255 23272.3 1.84562e+14 76 4 1 0.999668 
-9.5532e+15 -195.815 -1.52904e-10 4.97118e+27 0.000845061 7.90045 23372.5 1.8259e+14 77 4 1 0.999678 
-9.46239e+15 -183.68 -1.52946e-10 4.97118e+27 0.000854057 8.01845 23471.7 1.80667e+14 78 4 1 0.999686 
-9.37252e+15 -171.688 -1.53298e-10 4.97118e+27 0.000863027 8.13658 23570 1.78789e+14 79 4 1 0.999694 
-9.28359e+15 -159.84 -1.53408e-10 4.97118e+27 0.000871971 8.25488 23667.4 1.76955e+14 80 4 1 0.999702 
-9.19556e+15 -148.127 -1.53319e-10 4.97118e+27 0.000880881 8.37321 23763.8 1.75166e+14 81 4 1 0.99971 
-9.10842e+15 -136.542 -1.53555e-10 4.97118e+27 0.000889759 8.49159 23859.3 1.73418e+14 82 4 1 0.999718 
-9.02214e+15 -125.097 -1.53477e-10 4.97118e+27 0.000898605 8.61002 23953.9 1.71711e+14 83 4 1 0.999726 
-8.93671e+15 -113.78 -1.53413e-10 4.97118e+27 0.000907413 8.7284 24047.5 1.70044e+14 84 4 1 0.999733 
-8.85209e+15 -102.607 -1.53397e-10 4.97118e+27 0.000916185 8.84675 24140.2 1.68416e+14 85 4 1 0.999741 
-8.76829e+15 -91.5947 -1.52979e-10 4.97118e+27 0.000924912 8.96495 24231.9 1.66827e+14 86 4 1 0.999747 
-8.68526e+15 -80.681 -1.53422e-10 4.97118e+27 0.000933605 9.08312 24322.8 1.65273e+14 87 4 1 0.999754 
-8.60301e+15 -69.8597 -1.53667e-10 4.97118e+27 0.000942266 9.20136 24412.8 1.63754e+14 88 4 1 0.999769 
-8.52151e+15 -59.3084 -1.48327e-10 4.97118e+27 0.000950766 9.31779 24500.7 1.6229e+14 89 4 1 0.999786 
-8.44072e+15 -49.2905 -1.42619e-10 4.97118e+27 0.000959008 9.43088 24585.2 1.60895e+14 90 4 1 0.99977 
-8.36061e+15 -39.2008 -1.58182e-10 4.97118e+27 0.00096747 9.54746 24671.7 1.59488e+14 91 4 1 0.999735 
-8.28122e+15 -27.7526 -1.79852e-10 4.97118e+27 0.000976653 9.67515 24765.6 1.57989e+14 92 4 1 0.999807 
-8.20262e+15 -16.825 -1.33925e-10 4.97118e+27 0.000985071 9.79277 24851.2 1.56638e+14 93 4 1 0.999941 
-8.12458e+15 -11.0115 -4.33343e-11 4.97118e+27 0.000990366 9.86547 24903.5 1.55801e+14 94 4 1 0.99993 
-8.04681e+15 -7.49721 -9.13721e-11 4.97118e+27 0.000994867 9.92657 24947.5 1.55096e+14 95 4 1 0.999687 
-7.96949e+15 4.08079 -2.63435e-10 4.97118e+27 0.0010043 10.0599 25043.2 1.5364e+14 96 4 1 0.999588 
-7.89317e+15 21.3889 -2.31221e-10 4.97118e+27 0.0010167 10.2367 25168.2 1.51766e+14 97 4 1 0.999945 
-7.81772e+15 29.3029 -3.16831e-11 4.97118e+27 0.00102368 10.3348 25236.7 1.50731e+14 98 4 1 1 
-7.74244e+15 29.0714 1.83481e-11 4.97118e+27 0.00102427 10.3418 25241.5 1.50644e+14 99 3 1 1 
-7.66707e+15 27.3139 3.11067e-11 4.97118e+27 0.00102274 10.3201 25226.3 1.50869e+14 100 4 1 0.999995 
-7.59157e+15 24.9801 3.86146e-11 4.97118e+27 0.00102067 10.2908 25205.8 1.51175e+14 101 4 1 0.999989 
-7.5159e+15 22.2674 4.38794e-11 4.97118e+27 0.00101831 10.2574 25182.4 1.51526e+14 102 4 1 0.999985 
-7.44004e+15 19.3384 4.64771e-11 4.97118e+27 0.0010158 10.222 25157.5 1.51899e+14 103 4 1 0.999982 
-7.364e+15 16.3568 4.65215e-11 4.97118e+27 0.00101329 10.1866 25132.5 1.52277e+14 104 4 1 0.999982 
-7.28776e+15 13.4738 4.42854e-11 4.97118e+27 0.00101088 10.1527 25108.6 1.52639e+14 105 4 1 0.999983 
-7.21136e+15 10.8121 4.02916e-11 4.97118e+27 0.00100869 10.1218 25086.7 1.52971e+14 106 4 1 0.999985 
-7.13479e+15 8.45662 3.51761e-11 4.97118e+27 0.00100677 10.0948 25067.5 1.53263e+14 107 4 1 0.999989 
-7.05809e+15 6.45152 2.95712e-11 4.97118e+27 0.00100514 10.072 25051.3 1.53511e+14 108 4 1 0.999992 
-6.98128e+15 4.80459 2.40115e-11 4.97118e+27 0.00100381 10.0534 25038 1.53714e+14 109 4 1 0.999994 
-6.90438e+15 3.49572 1.88834e-11 4.97118e+27 0.00100276 10.0387 25027.6 1.53875e+14 110 4 1 0.999996 
-6.82741e+15 2.48676 1.44171e-11 4.97118e+27 0.00100196 10.0274 25019.6 1.53998e+14 111 4 1 0.999998 
-6.75038e+15 1.73076 1.07068e-11 4.97118e+27 0.00100136 10.019 25013.6 1.5409e+14 112 4 1 0.999999 
-6.67332e+15 1.1792 7.74703e-12 4.97118e+27 0.00100092 10.0129 25009.2 1.54157e+14 113 4 1 0.999999 
-6.59622e+15 0.786825 5.46829e-12 4.97118e+27 0.00100062 10.0086 25006.1 1.54205e+14 114 4 1 1 
-6.51911e+15 0.514343 3.76915e-12 4.97118e+27 0.0010004 10.0056 25004 1.54238e+14 115 4 1 1 
-6.44199e+15 0.329471 2.53886e-12 4.97118e+27 0.00100026 10.0036 25002.6 1.5426e+14 116 4 1 1 
-6.36485e+15 0.206846 1.67219e-12 4.97118e+27 0.00100016 10.0022 25001.6 1.54275e+14 117 4 1 1 
-6.28771e+15 0.127288 1.07738e-12 4.97118e+27 0.0010001 10.0014 25001 1.54285e+14 118 4 1 1 
-6.21057e+15 0.0767843 6.79234e-13 4.97118e+27 0.00100006 10.0008 25000.6 1.54291e+14 119 4 1 1 
-6.13342e+15 0.0454059 4.19121e-13 4.97118e+27 0.00100004 10.0005 25000.3 1.54295e+14 120 4 1 1 
-6.05627e+15 0.0263214 2.53162e-13 4.97118e+27 0.00100002 10.0003 25000.2 1.54297e+14 121 4 1 1 
-5.97912e+15 0.0149574 1.49709e-13 4.97118e+27 0.00100001 10.0002 25000.1 1.54298e+14 122 4 1 1 
-5.90197e+15 0.00833187 8.66812e-14 4.97118e+27 0.00100001 10.0001 25000.1 1.54299e+14 123 4 1 1 
-5.82482e+15 0.00454929 4.91415e-14 4.97118e+27 0.001 10 25000 1.54299e+14 124 4 1 1 
-5.74767e+15 0.00243464 2.72792e-14 4.97118e+27 0.001 10 25000 1.543e+14 125 4 1 1 
-5.67052e+15 0.00127698 1.48278e-14 4.97118e+27 0.001 10 25000 1.543e+14 126 4 1 1 
-5.59337e+15 0.000656374 7.89176e-15 4.97118e+27 0.001 10 25000 1.543e+14 127 4 1 1 
-5.51622e+15 0.000330594 4.11256e-15 4.97118e+27 0.001 10 25000 1.543e+14 128 4 1 1 
-5.43907e+15 0.000163142 2.0983e-15 4.97118e+27 0.001 10 25000 1.543e+14 129 4 1 1 
-5.36192e+15 7.88687e-05 1.04811e-15 4.97118e+27 0.001 10 25000 1.543e+14 130 4 1 1 
-5.28477e+15 3.73464e-05 5.12497e-16 4.97118e+27 0.001 10 25000 1.543e+14 131 4 1 1 
-5.20762e+15 1.73191e-05 2.45285e-16 4.97118e+27 0.001 10 25000 1.543e+14 132 4 1 1 
-5.13047e+15 7.86415e-06 1.14892e-16 4.97118e+27 0.001 10 25000 1.543e+14 133 4 1 1 
-5.05332e+15 3.49572e-06 5.26586e-17 4.97118e+27 0.001 10 25000 1.543e+14 134 4 1 1 
-4.97617e+15 1.52083e-06 2.3612e-17 4.97118e+27 0.001 10 25000 1.543e+14 135 4 1 1 
-4.89902e+15 6.4739e-07 1.03564e-17 4.97118e+27 0.001 10 25000 1.543e+14 136 4 1 1 
-4.82187e+15 2.69563e-07 4.44167e-18 4.97118e+27 0.001 10 25000 1.543e+14 137 4 1 1 
-4.74472e+15 1.09763e-07 1.86205e-18 4.97118e+27 0.001 10 25000 1.543e+14 138 4 1 1 
-4.66757e+15 4.36821e-08 7.63291e-19 4.97118e+27 0.001 10 25000 1.543e+14 139 4 1 1 
-4.59042e+15 1.69826e-08 3.05451e-19 4.97118e+27 0.001 10 25000 1.543e+14 140 4 1 1 
-4.51327e+15 6.45798e-09 1.19231e-19 4.97118e+27 0.001 10 25000 1.543e+14 141 4 1 1 
-4.43612e+15 2.38755e-09 4.60236e-20 4.97118e+27 0.001 10 25000 1.543e+14 142 4 1 1 
-4.35897e+15 8.62709e-10 1.64415e-20 4.97118e+27 0.001 10 25000 1.543e+14 143 4 1 1 
-4.28182e+15 2.97294e-10 6.51692e-21 4.97118e+27 0.001 10 25000 1.543e+14 144 4 1 1 
-4.20467e+15 1.08964e-10 2.11091e-21 4.97118e+27 0.001 10 25000 1.543e+14 145 4 1 1 
-4.12752e+15 2.95219e-11 6.66796e-22 4.97118e+27 0.001 10 25000 1.543e+14 146 4 1 1 
-4.05037e+15 5.4507e-12 3.75763e-22 4.97118e+27 0.001 10 25000 1.543e+14 147 4 1 1 
-3.97322e+15 6.98482e-14 -1.10519e-23 4.97118e+27 0.001 10 25000 1.543e+14 148 5 1 1 
-3.89607e+15 3.49397e-14 -1.27813e-39 4.97118e+27 0.001 10 25000 1.543e+14 149 5 1 1 
-3.81892e+15 1.03361e-44 3.63266e-55 4.97118e+27 0.001 10 25000 1.543e+14 150 5 1 1 
-3.74177e+15 0 0 4.97118e+27 0.001 10 25000 1.543e+14 151 5 1 1 
-3.66462e+15 0 0 4.97118e+27 0.001 10 25000 1.543e+14 152 5 1 1 
-3.58747e+15 0 0 4.97118e+27 0.001 10 25000 1.543e+14 153 5 1 1 
-3.51032e+15 0 0 4.97118e+27 0.001 10 25000 1.543e+14 154 5 1 1 
-3.43317e+15 0 0 4.97118e+27 0.001 10 25000 1.543e+14 155 5 1 1 
-3.35602e+15 0 0 4.97118e+27 0.001 10 25000 1.543e+14 156 5 1 1 
-3.27887e+15 0 0 4.97118e+27 0.001 10 25000 1.543e+14 157 5 1 1 
-3.20172e+15 0 0 4.97118e+27 0.001 10 25000 1.543e+14 158 5 1 1 
-3.12457e+15 0 0 4.97118e+27 0.001 10 25000 1.543e+14 159 5 1 1 
-3.04742e+15 0 0 4.97118e+27 0.001 10 25000 1.543e+14 160 5 1 1 
-2.97027e+15 0 0 4.97118e+27 0.001 10 25000 1.543e+14 161 5 1 1 
-2.89312e+15 0 0 4.97118e+27 0.001 10 25000 1.543e+14 162 5 1 1 
-2.81597e+15 0 0 4.97118e+27 0.001 10 25000 1.543e+14 163 5 1 1 
-2.73882e+15 0 0 4.97118e+27 0.001 10 25000 1.543e+14 164 5 1 1 
-2.66167e+15 0 0 4.97118e+27 0.001 10 25000 1.543e+14 165 5 1 1 
-2.58452e+15 0 0 4.97118e+27 0.001 10 25000 1.543e+14 166 5 1 1 
-2.50737e+15 0 0 4.97118e+27 0.001 10 25000 1.543e+14 167 5 1 1 
-2.43022e+15 0 0 4.97118e+27 0.001 10 25000 1.543e+14 168 5 1 1 
-2.35307e+15 0 0 4.97118e+27 0.001 10 25000 1.543e+14 169 5 1 1 
-2.27592e+15 -1.03361e-44 -3.63266e-55 4.97118e+27 0.001 10 25000 1.543e+14 170 5 1 1 
-2.19877e+15 -5.24105e-14 -1.84198e-24 4.97118e+27 0.001 10 25000 1.543e+14 171 5 1 1 
-2.12162e+15 -2.6199e-13 -1.84198e-24 4.97118e+27 0.001 10 25000 1.543e+14 172 5 1 1 
-2.04447e+15 -8.03347e-13 -2.21037e-23 4.97118e+27 0.001 10 25000 1.543e+14 173 5 1 1 
-1.96732e+15 -3.87696e-12 -3.31556e-23 4.97118e+27 0.001 10 25000 1.543e+14 174 3 1 1 
-1.89017e+15 -3.22795e-12 6.44692e-23 4.97118e+27 0.001 10 25000 1.543e+14 175 3 1 1 
-1.81302e+15 -1.14187e-14 -1.84198e-24 4.97118e+27 0.001 10 25000 1.543e+14 176 5 1 1 
-1.73587e+15 7.28088e-15 -1.27813e-39 4.97118e+27 0.001 10 25000 1.543e+14 177 5 1 1 
-1.65872e+15 -3.72334e-13 1.0898e-54 4.97118e+27 0.001 10 25000 1.543e+14 178 5 1 1 
-1.58157e+15 -5.77674e-13 -3.68395e-24 4.97118e+27 0.001 10 25000 1.543e+14 179 5 1 1 
-1.50442e+15 6.52538e-13 -3.99593e-54 4.97118e+27 0.001 10 25000 1.543e+14 180 5 1 1 
-1.42727e+15 3.07701e-13 -1.47358e-23 4.97118e+27 0.001 10 25000 1.543e+14 181 5 1 1 
-1.35012e+15 -1.35586e-12 -1.47358e-23 4.97118e+27 0.001 10 25000 1.543e+14 182 5 1 1 
-1.27297e+15 -5.7594e-12 -1.28938e-23 4.97118e+27 0.001 10 25000 1.543e+14 183 3 1 1 
-1.19582e+15 1.01334e-12 5.71013e-23 4.97118e+27 0.001 10 25000 1.543e+14 184 3 1 1 
-1.11867e+15 6.60662e-13 -1.84198e-24 4.97118e+27 0.001 10 25000 1.543e+14 185 5 1 1 
-1.04152e+15 -1.80561e-12 -5.52593e-24 4.97118e+27 0.001 10 25000 1.543e+14 186 4 1 1 
-9.64375e+14 -2.40238e-12 -3.68395e-24 4.97118e+27 0.001 10 25000 1.543e+14 187 3 1 1 
-8.87225e+14 -1.89695e-12 -2.57877e-23 4.97118e+27 0.001 10 25000 1.543e+14 188 4 1 1 
-8.10075e+14 -1.41799e-12 3.86815e-23 4.97118e+27 0.001 10 25000 1.543e+14 189 4 1 1 
-7.32925e+14 -2.74335e-12 -1.28938e-23 4.97118e+27 0.001 10 25000 1.543e+14 190 5 1 1 
-6.55775e+14 -7.54457e-13 -3.68395e-24 4.97118e+27 0.001 10 25000 1.543e+14 191 5 1 1 
-5.78625e+14 -1.01117e-12 -3.68395e-24 4.97118e+27 0.001 10 25000 1.543e+14 192 5 1 1 
-5.01475e+14 -2.32368e-12 3.68395e-24 4.97118e+27 0.001 10 25000 1.543e+14 193 4 1 1 
-4.24325e+14 3.59998e-13 -1.84198e-24 4.97118e+27 0.001 10 25000 1.543e+14 194 3 1 1 
-3.47175e+14 -7.2385e-14 -1.84198e-24 4.97118e+27 0.001 10 25000 1.543e+14 195 4 1 1 
-2.70025e+14 5.00358e-13 7.36791e-24 4.97118e+27 0.001 10 25000 1.543e+14 196 4 1 1 
-1.92875e+14 4.31086e-13 -2.87579e-39 4.97118e+27 0.001 10 25000 1.543e+14 197 5 1 1 
-1.15725e+14 4.91819e-13 -7.9883e-39 4.97118e+27 0.001 10 25000 1.543e+14 198 3 1 1 
-3.8575e+13 1.06651e-13 3.68395e-24 4.97118e+27 0.001 10 25000 1.543e+14 199 4 1 1 
3.8575e+13 2.70474e-13 -9.20989e-24 4.97118e+27 0.001 10 25000 1.543e+14 200 5 1 1 
1.15725e+14 6.87768e-14 1.84198e-24 4.97118e+27 0.001 10 25000 1.543e+14 201 5 1 1 
1.92875e+14 8.19251e-13 -1.84198e-24 4.97118e+27 0.001 10 25000 1.543e+14 202 5 1 1 
2.70025e+14 5.77445e-13 -3.68395e-24 4.97118e+27 0.001 10 25000 1.543e+14 203 5 1 1 
3.47175e+14 -2.16833e-13 7.36791e-24 4.97118e+27 0.001 10 25000 1.543e+14 204 4 1 1 
4.24325e+14 5.0273e-13 5.52593e-24 4.97118e+27 0.001 10 25000 1.543e+14 205 5 1 1 
5.01475e+14 -1.23867e-12 -5.52593e-24 4.97118e+27 0.001 10 25000 1.543e+14 206 5 1 1 
5.78625e+14 1.59783e-12 -1.84198e-24 4.97118e+27 0.001 10 25000 1.543e+14 207 4 1 1 
6.55775e+14 8.36684e-13 -3.68395e-24 4.97118e+27 0.001 10 25000 1.543e+14 208 5 1 1 
7.32925e+14 -1.18273e-12 -5.52593e-24 4.97118e+27 0.001 10 25000 1.543e+14 209 4 1 1 
8.10075e+14 1.75116e-12 5.52593e-24 4.97118e+27 0.001 10 25000 1.543e+14 210 4 1 1 
8.87225e+14 -2.13439e-12 9.20989e-24 4.97118e+27 0.001 10 25000 1.543e+14 211 3 1 1 
9.64375e+14 5.59209e-12 -1.84198e-24 4.97118e+27 0.001 10 25000 1.543e+14 212 4 1 1 
1.04153e+15 1.83816e-12 -3.68395e-24 4.97118e+27 0.001 10 25000 1.543e+14 213 5 1 1 
1.11868e+15 2.02458e-12 -1.27813e-39 4.97118e+27 0.001 10 25000 1.543e+14 214 5 1 1 
