# Time [s]: 6.15447e+12
# Columns: pos [pc], vel [pc/s], acc [pc/s^2], mass [Msun], dens [g/cm^3], pres [barye], ene [erg/g], sml [pc], id, neighbor, alpha, gradh, ...additional?
4.22141e+16 -673.183 5.46497e-14 4.97118e+27 0.000506959 4.40354 21715.5 3.04364e+14 0 4 1 0.994706 
4.23627e+16 -673.194 6.03884e-14 4.97118e+27 0.000531055 4.11664 19379.5 2.90554e+14 1 4 1 0.999667 
4.25048e+16 -673.205 6.63543e-14 4.97118e+27 0.000544188 4.27144 19623 2.83542e+14 2 4 1 0.999987 
4.26462e+16 -673.217 7.29041e-14 4.97118e+27 0.000545817 4.28898 19644.8 2.82695e+14 3 4 1 0.999999 
4.27875e+16 -673.229 8.01963e-14 4.97118e+27 0.000546239 4.29154 19641.3 2.82477e+14 4 4 1 1 
4.29287e+16 -673.242 8.82963e-14 4.97118e+27 0.000546341 4.29211 19640.3 2.82424e+14 5 4 1 1 
4.30699e+16 -673.257 9.72011e-14 4.97118e+27 0.000546371 4.29216 19639.4 2.82409e+14 6 4 1 1 
4.32111e+16 -673.272 1.06862e-13 4.97118e+27 0.000546385 4.29209 19638.6 2.82401e+14 7 4 1 1 
4.33523e+16 -673.289 1.17265e-13 4.97118e+27 0.000546394 4.29201 19637.9 2.82397e+14 8 4 1 1 
4.34935e+16 -673.307 1.28519e-13 4.97118e+27 0.000546399 4.29192 19637.3 2.82394e+14 9 4 1 1 
4.36347e+16 -673.327 1.40913e-13 4.97118e+27 0.000546401 4.2918 19636.7 2.82393e+14 10 3 1 1 
4.37759e+16 -673.348 1.54868e-13 4.97118e+27 0.000546401 4.29169 19636.2 2.82393e+14 11 4 1 1 
4.39171e+16 -673.372 1.70771e-13 4.97118e+27 0.000546398 4.29156 19635.7 2.82395e+14 12 4 1 1 
4.40583e+16 -673.398 1.88824e-13 4.97118e+27 0.000546392 4.29141 19635.2 2.82398e+14 13 4 1 1 
4.41995e+16 -673.427 2.09141e-13 4.97118e+27 0.000546384 4.29125 19634.8 2.82402e+14 14 4 1 1 
4.43407e+16 -673.458 2.32002e-13 4.97118e+27 0.000546373 4.29107 19634.3 2.82408e+14 15 4 1 1 
4.44819e+16 -673.493 2.57953e-13 4.97118e+27 0.00054636 4.29087 19633.9 2.82415e+14 16 4 1 1 
4.46231e+16 -673.532 2.87659e-13 4.97118e+27 0.000546344 4.29065 19633.5 2.82423e+14 17 4 1 1 
4.47643e+16 -673.575 3.2166e-13 4.97118e+27 0.000546326 4.2904 19633 2.82432e+14 18 4 1 1 
4.49055e+16 -673.623 3.60163e-13 4.97118e+27 0.000546304 4.29012 19632.5 2.82443e+14 19 4 1 1 
4.50468e+16 -673.677 4.0319e-13 4.97118e+27 0.000546279 4.28981 19632 2.82456e+14 20 4 1 1 
4.5188e+16 -673.737 4.51429e-13 4.97118e+27 0.00054625 4.28946 19631.4 2.82471e+14 21 4 1 1 
4.53292e+16 -673.805 5.06682e-13 4.97118e+27 0.000546217 4.28907 19630.8 2.82488e+14 22 4 1 1 
4.54705e+16 -673.881 5.70582e-13 4.97118e+27 0.00054618 4.28863 19630.1 2.82508e+14 23 4 1 1 
4.56117e+16 -673.966 6.43873e-13 4.97118e+27 0.000546136 4.28813 19629.4 2.8253e+14 24 4 1 1 
4.5753e+16 -674.062 7.29241e-13 4.97118e+27 0.000546087 4.28756 19628.6 2.82556e+14 25 4 1 1 
4.58943e+16 -674.171 8.33618e-13 4.97118e+27 0.00054603 4.28691 19627.7 2.82585e+14 26 4 1 1 
4.60356e+16 -674.297 9.65254e-13 4.97118e+27 0.000545963 4.28616 19626.6 2.8262e+14 27 4 1 1 
4.61769e+16 -674.444 1.13239e-12 4.97118e+27 0.000545885 4.28528 19625.4 2.8266e+14 28 4 1 1 
-1.54018e+16 -674.619 1.34809e-12 4.97118e+27 0.00054579 4.28423 19624 2.82709e+14 29 4 1 1 
-1.52604e+16 -674.829 1.62707e-12 4.97118e+27 0.000545677 4.28296 19622.3 2.82768e+14 30 4 1 1 
-1.5119e+16 -675.083 1.9715e-12 4.97118e+27 0.000545539 4.28143 19620.2 2.8284e+14 31 4 1 1 
-1.49775e+16 -675.39 2.37014e-12 4.97118e+27 0.000545373 4.2796 19617.8 2.82926e+14 32 4 1 1 
-1.48361e+16 -675.756 2.80802e-12 4.97118e+27 0.000545177 4.27743 19614.9 2.83027e+14 33 4 1 1 
-1.46945e+16 -676.18 3.24382e-12 4.97118e+27 0.000544953 4.27496 19611.6 2.83144e+14 34 4 1 1 
-1.45529e+16 -676.651 3.57398e-12 4.97118e+27 0.000544706 4.27224 19608 2.83272e+14 35 4 1 0.999999 
-1.44112e+16 -677.146 3.67562e-12 4.97118e+27 0.000544453 4.26945 19604.3 2.83403e+14 36 4 1 0.999999 
-1.42695e+16 -677.63 3.49732e-12 4.97118e+27 0.000544215 4.26683 19600.8 2.83528e+14 37 4 1 0.999999 
-1.41277e+16 -678.048 2.96146e-12 4.97118e+27 0.000544015 4.26462 19597.9 2.83632e+14 38 4 1 1 
-1.39859e+16 -678.356 1.86068e-12 4.97118e+27 0.000543887 4.2632 19596 2.83699e+14 39 4 1 1 
-1.3844e+16 -678.466 1.89122e-12 4.97118e+27 0.000543813 4.26237 19594.9 2.83737e+14 40 5 1 0.999999 
-1.37021e+16 -678.563 -5.24871e-12 4.97118e+27 0.000544078 4.26521 19598.6 2.83599e+14 41 4 1 0.999965 
-1.35604e+16 -675.695 -3.77329e-11 4.97118e+27 0.000545727 4.28329 19622.2 2.82742e+14 42 4 1 0.999832 
-1.34194e+16 -668.24 -7.18665e-11 4.97118e+27 0.000549573 4.3256 19677.4 2.80764e+14 43 4 1 0.999646 
-1.32796e+16 -656.847 -9.81216e-11 4.97118e+27 0.000555435 4.39036 19761.1 2.778e+14 44 4 1 0.999496 
-1.31416e+16 -642.923 -1.13688e-10 4.97118e+27 0.000562698 4.47097 19864.1 2.74214e+14 45 4 1 0.99942 
-1.30054e+16 -627.736 -1.21103e-10 4.97118e+27 0.000570723 4.56051 19977 2.70359e+14 46 4 1 0.999416 
-1.28712e+16 -612.372 -1.20946e-10 4.97118e+27 0.000578974 4.6531 20092 2.66506e+14 47 4 1 0.999463 
-1.27389e+16 -597.587 -1.16187e-10 4.97118e+27 0.000587048 4.7442 20203.6 2.62841e+14 48 4 1 0.999527 
-1.26084e+16 -583.774 -1.09547e-10 4.97118e+27 0.000594735 4.83138 20309 2.59443e+14 49 4 1 0.999573 
-1.24794e+16 -570.752 -1.06372e-10 4.97118e+27 0.000602083 4.91514 20408.9 2.56277e+14 50 4 1 0.999587 
-1.23521e+16 -558.026 -1.08003e-10 4.97118e+27 0.000609347 4.99834 20507 2.53222e+14 51 4 1 0.999572 
-1.22262e+16 -545.043 -1.13436e-10 4.97118e+27 0.000616795 5.08406 20606.9 2.50164e+14 52 4 1 0.999542 
-1.21019e+16 -531.57 -1.201e-10 4.97118e+27 0.000624591 5.17424 20710.6 2.47042e+14 53 4 1 0.999508 
-1.19792e+16 -517.483 -1.26957e-10 4.97118e+27 0.00063278 5.26946 20818.8 2.43845e+14 54 4 1 0.999482 
-1.1858e+16 -502.957 -1.32389e-10 4.97118e+27 0.000641324 5.36934 20930.8 2.40596e+14 55 4 1 0.999466 
-1.17386e+16 -488.13 -1.36534e-10 4.97118e+27 0.000650136 5.47291 21045.3 2.37335e+14 56 4 1 0.999459 
-1.16207e+16 -473.161 -1.39767e-10 4.97118e+27 0.000659142 5.57935 21161.5 2.34092e+14 57 4 1 0.99946 
-1.15044e+16 -458.146 -1.41705e-10 4.97118e+27 0.000668272 5.68784 21278.2 2.30894e+14 58 4 1 0.999465 
-1.13898e+16 -443.16 -1.43806e-10 4.97118e+27 0.000677484 5.7979 21395 2.27754e+14 59 4 1 0.999475 
-1.12767e+16 -428.277 -1.44842e-10 4.97118e+27 0.000686748 5.9092 21511.6 2.24682e+14 60 4 1 0.999486 
-1.11651e+16 -413.503 -1.46136e-10 4.97118e+27 0.000696038 6.02141 21627.5 2.21683e+14 61 4 1 0.999498 
-1.1055e+16 -398.885 -1.46744e-10 4.97118e+27 0.00070534 6.13436 21742.6 2.1876e+14 62 4 1 0.999511 
-1.09463e+16 -384.393 -1.47505e-10 4.97118e+27 0.000714638 6.24786 21856.8 2.15914e+14 63 4 1 0.999524 
-1.08391e+16 -370.084 -1.48165e-10 4.97118e+27 0.000723931 6.36191 21970.1 2.13142e+14 64 4 1 0.999537 
-1.07332e+16 -355.942 -1.48568e-10 4.97118e+27 0.000733211 6.47637 22082.3 2.10444e+14 65 4 1 0.99955 
-1.06286e+16 -341.968 -1.4916e-10 4.97118e+27 0.000742475 6.59122 22193.4 2.07818e+14 66 4 1 0.999563 
-1.05253e+16 -328.157 -1.49508e-10 4.97118e+27 0.000751722 6.70642 22303.6 2.05262e+14 67 4 1 0.999575 
-1.04233e+16 -314.495 -1.49757e-10 4.97118e+27 0.000760944 6.82188 22412.6 2.02775e+14 68 4 1 0.999586 
-1.03226e+16 -301.021 -1.50451e-10 4.97118e+27 0.000770149 6.93768 22520.6 2.00351e+14 69 4 1 0.999598 
-1.0223e+16 -287.695 -1.5055e-10 4.97118e+27 0.000779333 7.05379 22627.7 1.9799e+14 70 4 1 0.999609 
-1.01246e+16 -274.521 -1.51073e-10 4.97118e+27 0.000788494 7.17014 22733.7 1.95689e+14 71 4 1 0.99962 
-1.00273e+16 -261.52 -1.51125e-10 4.97118e+27 0.00079763 7.28671 22838.7 1.93448e+14 72 4 1 0.99963 
-9.93111e+15 -248.648 -1.51449e-10 4.97118e+27 0.000806737 7.40345 22942.6 1.91264e+14 73 4 1 0.99964 
-9.83602e+15 -235.946 -1.51974e-10 4.97118e+27 0.000815826 7.52048 23045.6 1.89133e+14 74 4 1 0.99965 
-9.74197e+15 -223.388 -1.51835e-10 4.97118e+27 0.000824887 7.63768 23147.7 1.87056e+14 75 4 1 0.999659 
-9.64896e+15 -210.975 -1.52278e-10 4.97118e+27 0.000833918 7.755 23248.7 1.8503e+14 76 4 1 0.999668 
-9.55694e+15 -198.709 -1.52362e-10 4.97118e+27 0.000842925 7.87251 23348.8 1.83053e+14 77 4 1 0.999677 
-9.4659e+15 -186.576 -1.52466e-10 4.97118e+27 0.0008519 7.9901 23447.9 1.81125e+14 78 4 1 0.999686 
-9.37581e+15 -174.591 -1.52819e-10 4.97118e+27 0.00086085 8.10787 23546.2 1.79241e+14 79 4 1 0.999694 
-9.28665e+15 -162.745 -1.52901e-10 4.97118e+27 0.000869775 8.22579 23643.5 1.77402e+14 80 4 1 0.999702 
-9.1984e+15 -151.03 -1.52818e-10 4.97118e+27 0.000878665 8.34373 23739.8 1.75607e+14 81 4 1 0.99971 
-9.11104e+15 -139.449 -1.53097e-10 4.97118e+27 0.000887524 8.46174 23835.3 1.73855e+14 82 4 1 0.999718 
-9.02454e+15 -128.003 -1.52986e-10 4.97118e+27 0.000896352 8.5798 23929.8 1.72142e+14 83 4 1 0.999725 
-8.93889e+15 -116.686 -1.53001e-10 4.97118e+27 0.000905143 8.69784 24023.4 1.7047e+14 84 4 1 0.999732 
-8.85407e+15 -105.514 -1.53073e-10 4.97118e+27 0.000913901 8.81589 24116.1 1.68837e+14 85 4 1 0.99974 
-8.77005e+15 -94.491 -1.52439e-10 4.97118e+27 0.000922613 8.93376 24207.8 1.67242e+14 86 4 1 0.999747 
-8.68682e+15 -83.5845 -1.52754e-10 4.97118e+27 0.000931283 9.05151 24298.5 1.65685e+14 87 4 1 0.999753 
-8.60436e+15 -72.7728 -1.5353e-10 4.97118e+27 0.000939934 9.16948 24388.6 1.6416e+14 88 4 1 0.999765 
-8.52266e+15 -62.1376 -1.5001e-10 4.97118e+27 0.000948475 9.28638 24477 1.62682e+14 89 4 1 0.999784 
-8.44168e+15 -51.997 -1.42786e-10 4.97118e+27 0.000956751 9.3999 24562.1 1.61275e+14 90 4 1 0.999781 
-8.36138e+15 -42.1251 -1.50188e-10 4.97118e+27 0.000965037 9.51386 24646.8 1.5989e+14 91 4 1 0.999743 
-8.28178e+15 -31.131 -1.76407e-10 4.97118e+27 0.00097401 9.63826 24738.6 1.58417e+14 92 4 1 0.99977 
-8.20296e+15 -19.5848 -1.57099e-10 4.97118e+27 0.000982929 9.76288 24829.6 1.5698e+14 93 4 1 0.999913 
-8.1248e+15 -12.0326 -6.43445e-11 4.97118e+27 0.000989196 9.84969 24892.2 1.55985e+14 94 4 1 0.999951 
-8.04697e+15 -8.87915 -5.43562e-11 4.97118e+27 0.000993283 9.90478 24931.8 1.55343e+14 95 4 1 0.99979 
-7.96946e+15 -0.479143 -2.17418e-10 4.97118e+27 0.00100088 10.0112 25008.4 1.54164e+14 96 4 1 0.999543 
-7.8928e+15 16.6 -2.73778e-10 4.97118e+27 0.00101324 10.1875 25133.6 1.52284e+14 97 4 1 0.99986 
-7.81717e+15 28.2487 -7.94829e-11 4.97118e+27 0.00102239 10.317 25224.3 1.50921e+14 98 4 1 1.00001 
-7.74188e+15 29.3622 1.23183e-11 4.97118e+27 0.00102445 10.3446 25243.4 1.50618e+14 99 3 1 1 
-7.66655e+15 27.8736 2.79096e-11 4.97118e+27 0.00102324 10.3272 25231.3 1.50795e+14 100 4 1 0.999997 
-7.59109e+15 25.6928 3.65456e-11 4.97118e+27 0.0010213 10.2997 25212 1.51082e+14 101 4 1 0.99999 
-7.51547e+15 23.0857 4.24105e-11 4.97118e+27 0.00101902 10.2675 25189.4 1.5142e+14 102 4 1 0.999986 
-7.43967e+15 20.2137 4.58267e-11 4.97118e+27 0.00101655 10.2326 25164.9 1.51788e+14 103 4 1 0.999983 
-7.36368e+15 17.2402 4.66268e-11 4.97118e+27 0.00101403 10.197 25139.9 1.52165e+14 104 4 1 0.999982 
-7.2875e+15 14.321 4.50514e-11 4.97118e+27 0.00101159 10.1626 25115.6 1.52532e+14 105 4 1 0.999982 
-7.21115e+15 11.5882 4.15503e-11 4.97118e+27 0.00100933 10.1308 25093.1 1.52874e+14 106 4 1 0.999985 
-7.13463e+15 9.13854 3.67339e-11 4.97118e+27 0.00100732 10.1026 25073.1 1.53179e+14 107 4 1 0.999988 
-7.05797e+15 7.02821 3.12428e-11 4.97118e+27 0.00100561 10.0785 25055.9 1.5344e+14 108 4 1 0.999991 
-6.98119e+15 5.27549 2.56451e-11 4.97118e+27 0.00100419 10.0587 25041.8 1.53656e+14 109 4 1 0.999994 
-6.90431e+15 3.86799 2.03733e-11 4.97118e+27 0.00100306 10.0428 25030.6 1.53829e+14 110 4 1 0.999996 
-6.82736e+15 2.77239 1.57031e-11 4.97118e+27 0.00100219 10.0306 25021.8 1.53963e+14 111 4 1 0.999998 
-6.75035e+15 1.94389 1.17675e-11 4.97118e+27 0.00100153 10.0214 25015.3 1.54064e+14 112 4 1 0.999999 
-6.67329e+15 1.33411 8.58809e-12 4.97118e+27 0.00100105 10.0146 25010.4 1.54139e+14 113 4 1 0.999999 
-6.59621e+15 0.896646 6.11255e-12 4.97118e+27 0.0010007 10.0098 25007 1.54192e+14 114 4 1 1 
-6.5191e+15 0.590364 4.24745e-12 4.97118e+27 0.00100046 10.0064 25004.6 1.54229e+14 115 4 1 1 
-6.44198e+15 0.380894 2.88384e-12 4.97118e+27 0.0010003 10.0041 25003 1.54254e+14 116 4 1 1 
-6.36485e+15 0.240857 1.91435e-12 4.97118e+27 0.00100019 10.0026 25001.9 1.54271e+14 117 4 1 1 
-6.28771e+15 0.149293 1.24303e-12 4.97118e+27 0.00100012 10.0016 25001.2 1.54282e+14 118 4 1 1 
-6.21057e+15 0.0907148 7.89768e-13 4.97118e+27 0.00100007 10.001 25000.7 1.54289e+14 119 4 1 1 
-6.13342e+15 0.0540376 4.91117e-13 4.97118e+27 0.00100004 10.0006 25000.4 1.54294e+14 120 4 1 1 
-6.05627e+15 0.0315572 2.98963e-13 4.97118e+27 0.00100002 10.0003 25000.2 1.54296e+14 121 4 1 1 
-5.97912e+15 0.0180668 1.78177e-13 4.97118e+27 0.00100001 10.0002 25000.1 1.54298e+14 122 4 1 1 
-5.90197e+15 0.0101399 1.03975e-13 4.97118e+27 0.00100001 10.0001 25000.1 1.54299e+14 123 4 1 1 
-5.82482e+15 0.00557871 5.94126e-14 4.97118e+27 0.001 10.0001 25000 1.54299e+14 124 4 1 1 
-5.74767e+15 0.00300858 3.32438e-14 4.97118e+27 0.001 10 25000 1.543e+14 125 4 1 1 
-5.67052e+15 0.00159032 1.82152e-14 4.97118e+27 0.001 10 25000 1.543e+14 126 4 1 1 
-5.59337e+15 0.000823892 9.77331e-15 4.97118e+27 0.001 10 25000 1.543e+14 127 4 1 1 
-5.51622e+15 0.000418287 5.13481e-15 4.97118e+27 0.001 10 25000 1.543e+14 128 4 1 1 
-5.43907e+15 0.00020809 2.64157e-15 4.97118e+27 0.001 10 25000 1.543e+14 129 4 1 1 
-5.36192e+15 0.000101425 1.33053e-15 4.97118e+27 0.001 10 25000 1.543e+14 130 4 1 1 
-5.28477e+15 4.84283e-05 6.56114e-16 4.97118e+27 0.001 10 25000 1.543e+14 131 4 1 1 
-5.20762e+15 2.26486e-05 3.16722e-16 4.97118e+27 0.001 10 25000 1.543e+14 132 4 1 1 
-5.13047e+15 1.03728e-05 1.49646e-16 4.97118e+27 0.001 10 25000 1.543e+14 133 4 1 1 
-5.05332e+15 4.65126e-06 6.91951e-17 4.97118e+27 0.001 10 25000 1.543e+14 134 4 1 1 
-4.97617e+15 2.04162e-06 3.13067e-17 4.97118e+27 0.001 10 25000 1.543e+14 135 4 1 1 
-4.89902e+15 8.77002e-07 1.38566e-17 4.97118e+27 0.001 10 25000 1.543e+14 136 4 1 1 
-4.82187e+15 3.68564e-07 5.99814e-18 4.97118e+27 0.001 10 25000 1.543e+14 137 4 1 1 
-4.74472e+15 1.51501e-07 2.53937e-18 4.97118e+27 0.001 10 25000 1.543e+14 138 4 1 1 
-4.66757e+15 6.08782e-08 1.05007e-18 4.97118e+27 0.001 10 25000 1.543e+14 139 4 1 1 
-4.59042e+15 2.39095e-08 4.25003e-19 4.97118e+27 0.001 10 25000 1.543e+14 140 4 1 1 
-4.51327e+15 9.17902e-09 1.67708e-19 4.97118e+27 0.001 10 25000 1.543e+14 141 4 1 1 
-4.43612e+15 3.43708e-09 6.46516e-20 4.97118e+27 0.001 10 25000 1.543e+14 142 4 1 1 
-4.35897e+15 1.24813e-09 2.42017e-20 4.97118e+27 0.001 10 25000 1.543e+14 143 4 1 1 
-4.28182e+15 4.45645e-10 9.127e-21 4.97118e+27 0.001 10 25000 1.543e+14 144 4 1 1 
-4.20467e+15 1.58624e-10 3.12584e-21 4.97118e+27 0.001 10 25000 1.543e+14 145 4 1 1 
-4.12752e+15 4.56269e-11 1.03151e-21 4.97118e+27 0.001 10 25000 1.543e+14 146 4 1 1 
-4.05037e+15 1.41844e-11 5.45225e-22 4.97118e+27 0.001 10 25000 1.543e+14 147 4 1 1 
-3.97322e+15 3.49328e-13 4.05235e-23 4.97118e+27 0.001 10 25000 1.543e+14 148 5 1 1 
-3.89607e+15 3.49397e-14 -1.27813e-39 4.97118e+27 0.001 10 25000 1.543e+14 149 5 1 1 
-3.81892e+15 1.3781e-44 0 4.97118e+27 0.001 10 25000 1.543e+14 150 5 1 1 
-3.74177e+15 0 0 4.97118e+27 0.001 10 25000 1.543e+14 151 5 1 1 
-3.66462e+15 0 0 4.97118e+27 0.001 10 25000 1.543e+14 152 5 1 1 
-3.58747e+15 0 0 4.97118e+27 0.001 10 25000 1.543e+14 153 5 1 1 
-3.51032e+15 0 0 4.97118e+27 0.001 10 25000 1.543e+14 154 5 1 1 
-3.43317e+15 0 0 4.97118e+27 0.001 10 25000 1.543e+14 155 5 1 1 
-3.35602e+15 0 0 4.97118e+27 0.001 10 25000 1.543e+14 156 5 1 1 
-3.27887e+15 0 0 4.97118e+27 0.001 10 25000 1.543e+14 157 5 1 1 
-3.20172e+15 0 0 4.97118e+27 0.001 10 25000 1.543e+14 158 5 1 1 
-3.12457e+15 0 0 4.97118e+27 0.001 10 25000 1.543e+14 159 5 1 1 
-3.04742e+15 0 0 4.97118e+27 0.001 10 25000 1.543e+14 160 5 1 1 
-2.97027e+15 0 0 4.97118e+27 0.001 10 25000 1.543e+14 161 5 1 1 
-2.89312e+15 0 0 4.97118e+27 0.001 10 25000 1.543e+14 162 5 1 1 
-2.81597e+15 0 0 4.97118e+27 0.001 10 25000 1.543e+14 163 5 1 1 
-2.73882e+15 0 0 4.97118e+27 0.001 10 25000 1.543e+14 164 5 1 1 
-2.66167e+15 0 0 4.97118e+27 0.001 10 25000 1.543e+14 165 5 1 1 
-2.58452e+15 0 0 4.97118e+27 0.001 10 25000 1.543e+14 166 5 1 1 
-2.50737e+15 0 0 4.97118e+27 0.001 10 25000 1.543e+14 167 5 1 1 
-2.43022e+15 0 0 4.97118e+27 0.001 10 25000 1.543e+14 168 5 1 1 
-2.35307e+15 0 0 4.97118e+27 0.001 10 25000 1.543e+14 169 5 1 1 
-2.27592e+15 -1.72258e-44 -3.63266e-55 4.97118e+27 0.001 10 25000 1.543e+14 170 5 1 1 
-2.19877e+15 -8.73454e-14 -1.84198e-24 4.97118e+27 0.001 10 25000 1.543e+14 171 5 1 1 
-2.12162e+15 -3.3186e-13 -5.52593e-24 4.97118e+27 0.001 10 25000 1.543e+14 172 5 1 1 
-2.04447e+15 -1.18763e-12 -1.84198e-23 4.97118e+27 0.001 10 25000 1.543e+14 173 5 1 1 
-1.96732e+15 -4.54073e-12 -3.68395e-23 4.97118e+27 0.001 10 25000 1.543e+14 174 3 1 1 
-1.89017e+15 -1.95282e-12 6.99951e-23 4.97118e+27 0.001 10 25000 1.543e+14 175 3 1 1 
-1.81302e+15 -6.38211e-14 -3.68395e-24 4.97118e+27 0.001 10 25000 1.543e+14 176 5 1 1 
-1.73587e+15 7.28088e-15 -1.27813e-39 4.97118e+27 0.001 10 25000 1.543e+14 177 5 1 1 
-1.65872e+15 -4.07269e-13 -3.68395e-24 4.97118e+27 0.001 10 25000 1.543e+14 178 5 1 1 
-1.58157e+15 -6.12609e-13 7.26532e-55 4.97118e+27 0.001 10 25000 1.543e+14 179 5 1 1 
-1.50442e+15 6.17603e-13 -3.68395e-24 4.97118e+27 0.001 10 25000 1.543e+14 180 5 1 1 
-1.42727e+15 1.85429e-13 1.84198e-24 4.97118e+27 0.001 10 25000 1.543e+14 181 5 1 1 
-1.35012e+15 -2.31657e-12 -8.65729e-23 4.97118e+27 0.001 10 25000 1.543e+14 182 3 1 1 
-1.27297e+15 -4.83363e-12 1.10519e-22 4.97118e+27 0.001 10 25000 1.543e+14 183 3 1 1 
-1.19582e+15 1.34522e-12 -2.21037e-23 4.97118e+27 0.001 10 25000 1.543e+14 184 4 1 1 
-1.11867e+15 7.47999e-13 1.10519e-23 4.97118e+27 0.001 10 25000 1.543e+14 185 5 1 1 
-1.04152e+15 -1.89295e-12 -3.68395e-24 4.97118e+27 0.001 10 25000 1.543e+14 186 4 1 1 
-9.64375e+14 -2.47225e-12 -3.68395e-24 4.97118e+27 0.001 10 25000 1.543e+14 187 3 1 1 
-8.87225e+14 -2.31617e-12 -1.84198e-23 4.97118e+27 0.001 10 25000 1.543e+14 188 4 1 1 
-8.10075e+14 -1.01624e-12 3.68395e-24 4.97118e+27 0.001 10 25000 1.543e+14 189 4 1 1 
-7.32925e+14 -2.3416e-12 5.52593e-23 4.97118e+27 0.001 10 25000 1.543e+14 190 4 1 1 
-6.55775e+14 -1.24355e-12 -4.78914e-23 4.97118e+27 0.001 10 25000 1.543e+14 191 5 1 1 
-5.78625e+14 -1.01117e-12 3.68395e-24 4.97118e+27 0.001 10 25000 1.543e+14 192 4 1 1 
-5.01475e+14 -2.28874e-12 1.11836e-38 4.97118e+27 0.001 10 25000 1.543e+14 193 4 1 1 
-4.24325e+14 3.25063e-13 -1.84198e-24 4.97118e+27 0.001 10 25000 1.543e+14 194 3 1 1 
-3.47175e+14 -1.0732e-13 -1.84198e-24 4.97118e+27 0.001 10 25000 1.543e+14 195 4 1 1 
-2.70025e+14 6.05163e-13 3.68395e-24 4.97118e+27 0.001 10 25000 1.543e+14 196 4 1 1 
-1.92875e+14 4.66021e-13 3.68395e-24 4.97118e+27 0.001 10 25000 1.543e+14 197 5 1 1 
-1.15725e+14 4.04482e-13 -9.20989e-24 4.97118e+27 0.001 10 25000 1.543e+14 198 3 1 1 
-3.8575e+13 2.63858e-13 1.28938e-23 4.97118e+27 0.001 10 25000 1.543e+14 199 4 1 1 
3.8575e+13 1.30735e-13 -5.52593e-24 4.97118e+27 0.001 10 25000 1.543e+14 200 4 1 1 
1.15725e+14 1.91049e-13 1.10519e-23 4.97118e+27 0.001 10 25000 1.543e+14 201 5 1 1 
1.92875e+14 6.62044e-13 -1.47358e-23 4.97118e+27 0.001 10 25000 1.543e+14 202 4 1 1 
2.70025e+14 5.77445e-13 3.68395e-24 4.97118e+27 0.001 10 25000 1.543e+14 203 3 1 1 
3.47175e+14 -1.46963e-13 4.47345e-39 4.97118e+27 0.001 10 25000 1.543e+14 204 4 1 1 
4.24325e+14 6.07535e-13 5.52593e-24 4.97118e+27 0.001 10 25000 1.543e+14 205 5 1 1 
5.01475e+14 -1.34347e-12 -5.52593e-24 4.97118e+27 0.001 10 25000 1.543e+14 206 5 1 1 
5.78625e+14 1.5629e-12 -1.84198e-24 4.97118e+27 0.001 10 25000 1.543e+14 207 4 1 1 
6.55775e+14 7.66815e-13 -3.68395e-24 4.97118e+27 0.001 10 25000 1.543e+14 208 5 1 1 
7.32925e+14 -1.28753e-12 -5.52593e-24 4.97118e+27 0.001 10 25000 1.543e+14 209 4 1 1 
8.10075e+14 1.8909e-12 9.20989e-24 4.97118e+27 0.001 10 25000 1.543e+14 210 4 1 1 
8.87225e+14 -1.94224e-12 1.10519e-23 4.97118e+27 0.001 10 25000 1.543e+14 211 3 1 1 
9.64375e+14 5.53969e-12 -3.68395e-24 4.97118e+27 0.001 10 25000 1.543e+14 212 4 1 1 
1.04153e+15 1.73335e-12 -7.36791e-24 4.97118e+27 0.001 10 25000 1.543e+14 213 5 1 1 
1.11868e+15 2.02458e-12 -1.27813e-39 4.97118e+27 0.001 10 25000 1.543e+14 214 5 1 1 
1.19583e+15 1.49681e-12 -3.63266e-55 4.97118e+27 0.001 10 25000 1.543e+14 215 5 1 1 
