# time [s] kinetic [erg/g] thermal [erg/g] potential [erg/g] total [erg/g]
0 0 29487.5 0 29487.5
1.43034e+10 1.23696 29486.3 0 29487.5
2.93334e+10 4.39393 29483.1 0 29487.5
4.69564e+10 8.38426 29479 0 29487.4
6.46194e+10 11.4676 29475.9 0 29487.4
8.21411e+10 13.829 29473.6 0 29487.4
9.99796e+10 16.0636 29471.4 0 29487.4
1.17714e+11 18.4255 29469 0 29487.5
1.35362e+11 20.9996 29466.5 0 29487.5
1.53052e+11 23.7516 29463.7 0 29487.4
1.70768e+11 26.5796 29460.9 0 29487.4
1.88525e+11 29.4165 29458 0 29487.4
2.05977e+11 32.1653 29455.3 0 29487.4
2.23758e+11 34.881 29452.6 0 29487.4
2.41572e+11 37.5026 29449.9 0 29487.4
2.59396e+11 40.0546 29447.4 0 29487.4
2.77163e+11 42.5681 29444.9 0 29487.4
2.94986e+11 45.0948 29442.4 0 29487.4
3.12865e+11 47.6649 29439.8 0 29487.5
3.30808e+11 50.2975 29437.2 0 29487.5
3.48677e+11 52.9755 29434.5 0 29487.5
3.66602e+11 55.7179 29431.7 0 29487.5
3.84553e+11 58.5152 29428.9 0 29487.5
4.02438e+11 61.336 29426.1 0 29487.5
4.20367e+11 64.1751 29423.3 0 29487.5
4.38355e+11 67.0219 29420.4 0 29487.5
4.56368e+11 69.8655 29417.6 0 29487.5
4.74331e+11 72.6934 29414.8 0 29487.5
4.92353e+11 75.5267 29411.9 0 29487.5
5.10408e+11 78.3681 29409.1 0 29487.5
5.2841e+11 81.2086 29406.2 0 29487.5
5.46434e+11 84.0623 29403.4 0 29487.5
5.64516e+11 86.936 29400.5 0 29487.5
5.82392e+11 89.7856 29397.7 0 29487.5
6.00443e+11 92.6673 29394.8 0 29487.5
6.18549e+11 95.5601 29391.9 0 29487.5
6.36693e+11 98.4615 29389 0 29487.5
6.54786e+11 101.358 29386.1 0 29487.5
6.72896e+11 104.26 29383.2 0 29487.5
6.91059e+11 107.174 29380.3 0 29487.5
7.09055e+11 110.065 29377.4 0 29487.5
7.27183e+11 112.979 29374.5 0 29487.5
7.45366e+11 115.902 29371.6 0 29487.5
7.63563e+11 118.83 29368.6 0 29487.5
7.81725e+11 121.753 29365.7 0 29487.5
7.99911e+11 124.681 29362.8 0 29487.5
8.18144e+11 127.62 29359.8 0 29487.5
8.3625e+11 130.542 29356.9 0 29487.5
8.54449e+11 133.48 29354 0 29487.5
8.727e+11 136.428 29351 0 29487.5
8.90948e+11 139.377 29348.1 0 29487.5
9.09171e+11 142.322 29345.1 0 29487.5
9.27426e+11 145.273 29342.2 0 29487.5
9.4572e+11 148.232 29339.2 0 29487.5
9.63927e+11 151.179 29336.3 0 29487.5
9.82189e+11 154.136 29333.3 0 29487.5
1.0005e+12 157.102 29330.4 0 29487.5
1.0188e+12 160.067 29327.4 0 29487.5
1.03708e+12 163.029 29324.4 0 29487.5
1.05539e+12 165.999 29321.5 0 29487.5
1.07373e+12 168.972 29318.5 0 29487.5
1.09203e+12 171.941 29315.5 0 29487.5
1.11035e+12 174.913 29312.5 0 29487.5
1.12872e+12 177.895 29309.6 0 29487.5
1.14695e+12 180.856 29306.6 0 29487.5
1.16528e+12 183.834 29303.6 0 29487.5
1.18365e+12 186.818 29300.6 0 29487.5
1.20202e+12 189.803 29297.7 0 29487.5
1.22038e+12 192.786 29294.7 0 29487.5
1.23875e+12 195.772 29291.7 0 29487.5
1.25715e+12 198.765 29288.7 0 29487.5
1.27547e+12 201.744 29285.7 0 29487.5
1.29385e+12 204.734 29282.7 0 29487.5
1.31227e+12 207.731 29279.7 0 29487.5
1.33068e+12 210.727 29276.7 0 29487.5
1.34907e+12 213.721 29273.7 0 29487.5
1.36749e+12 216.72 29270.7 0 29487.5
1.38593e+12 219.722 29267.7 0 29487.5
1.40433e+12 222.718 29264.7 0 29487.5
1.42275e+12 225.719 29261.7 0 29487.5
1.44122e+12 228.727 29258.7 0 29487.5
1.45966e+12 231.732 29255.7 0 29487.5
1.47809e+12 234.736 29252.7 0 29487.5
1.49656e+12 237.745 29249.7 0 29487.5
1.51502e+12 240.755 29246.7 0 29487.5
1.53348e+12 243.764 29243.7 0 29487.5
1.55194e+12 246.775 29240.7 0 29487.5
1.57044e+12 249.791 29237.7 0 29487.5
1.58885e+12 252.794 29234.7 0 29487.5
1.60733e+12 255.807 29231.7 0 29487.5
1.62583e+12 258.826 29228.6 0 29487.5
1.64432e+12 261.843 29225.6 0 29487.5
1.66281e+12 264.86 29222.6 0 29487.5
1.68132e+12 267.88 29219.6 0 29487.5
1.69984e+12 270.902 29216.6 0 29487.5
1.71832e+12 273.919 29213.6 0 29487.5
1.73683e+12 276.941 29210.5 0 29487.5
1.75537e+12 279.968 29207.5 0 29487.5
1.77389e+12 282.992 29204.5 0 29487.5
1.79241e+12 286.016 29201.5 0 29487.5
1.81095e+12 289.044 29198.4 0 29487.5
1.82949e+12 292.072 29195.4 0 29487.5
1.84802e+12 295.099 29192.4 0 29487.5
1.86656e+12 298.128 29189.3 0 29487.5
1.88513e+12 301.161 29186.3 0 29487.5
1.90363e+12 304.184 29183.3 0 29487.5
1.92218e+12 307.215 29180.3 0 29487.5
1.94075e+12 310.25 29177.2 0 29487.5
1.95932e+12 313.284 29174.2 0 29487.5
1.97788e+12 316.317 29171.2 0 29487.5
1.99645e+12 319.353 29168.1 0 29487.5
2.01504e+12 322.391 29165.1 0 29487.5
2.0336e+12 325.425 29162 0 29487.5
2.05218e+12 328.462 29159 0 29487.5
2.07078e+12 331.504 29156 0 29487.5
2.08937e+12 334.543 29152.9 0 29487.5
2.10795e+12 337.582 29149.9 0 29487.5
2.12656e+12 340.624 29146.8 0 29487.5
2.14516e+12 343.667 29143.8 0 29487.5
2.16376e+12 346.708 29140.8 0 29487.5
2.18237e+12 349.751 29137.7 0 29487.5
2.20099e+12 352.797 29134.7 0 29487.5
2.21957e+12 355.836 29131.6 0 29487.5
2.23818e+12 358.88 29128.6 0 29487.5
2.25681e+12 361.929 29125.5 0 29487.5
2.27543e+12 364.976 29122.5 0 29487.5
2.29405e+12 368.022 29119.5 0 29487.5
2.31269e+12 371.071 29116.4 0 29487.5
2.33133e+12 374.121 29113.4 0 29487.5
2.34995e+12 377.169 29110.3 0 29487.5
2.36859e+12 380.218 29107.3 0 29487.5
2.38725e+12 383.272 29104.2 0 29487.5
2.40584e+12 386.315 29101.2 0 29487.5
2.42448e+12 389.366 29098.1 0 29487.5
2.44314e+12 392.42 29095.1 0 29487.5
2.4618e+12 395.474 29092 0 29487.5
2.48045e+12 398.527 29088.9 0 29487.5
2.49911e+12 401.581 29085.9 0 29487.5
2.51778e+12 404.638 29082.8 0 29487.5
2.53643e+12 407.69 29079.8 0 29487.5
2.55509e+12 410.745 29076.7 0 29487.5
2.57377e+12 413.804 29073.7 0 29487.5
2.59245e+12 416.862 29070.6 0 29487.5
2.61112e+12 419.919 29067.6 0 29487.5
2.6298e+12 422.978 29064.5 0 29487.5
2.64849e+12 426.038 29061.4 0 29487.5
2.66717e+12 429.097 29058.4 0 29487.5
2.68585e+12 432.157 29055.3 0 29487.5
2.70456e+12 435.219 29052.3 0 29487.5
2.72321e+12 438.275 29049.2 0 29487.5
2.7419e+12 441.336 29046.1 0 29487.5
2.76061e+12 444.399 29043.1 0 29487.5
2.77931e+12 447.463 29040 0 29487.5
2.79801e+12 450.525 29037 0 29487.5
2.81672e+12 453.589 29033.9 0 29487.5
2.83543e+12 456.655 29030.8 0 29487.5
2.85413e+12 459.717 29027.8 0 29487.5
2.87284e+12 462.782 29024.7 0 29487.5
2.89156e+12 465.85 29021.6 0 29487.5
2.91024e+12 468.909 29018.6 0 29487.5
2.92895e+12 471.975 29015.5 0 29487.5
2.94768e+12 475.043 29012.4 0 29487.5
2.96641e+12 478.111 29009.4 0 29487.5
2.98513e+12 481.179 29006.3 0 29487.5
3.00386e+12 484.247 29003.2 0 29487.5
3.0226e+12 487.318 29000.2 0 29487.5
3.04131e+12 490.383 28997.1 0 29487.5
3.06004e+12 493.453 28994 0 29487.5
3.07879e+12 496.525 28991 0 29487.5
3.09753e+12 499.595 28987.9 0 29487.5
3.11627e+12 502.666 28984.8 0 29487.5
3.13502e+12 505.738 28981.7 0 29487.5
3.15377e+12 508.811 28978.7 0 29487.5
3.17252e+12 511.883 28975.6 0 29487.5
3.19127e+12 514.956 28972.5 0 29487.5
3.21003e+12 518.03 28969.4 0 29487.5
3.22875e+12 521.099 28966.4 0 29487.5
3.24751e+12 524.173 28963.3 0 29487.5
3.26627e+12 527.248 28960.2 0 29487.5
3.28504e+12 530.324 28957.2 0 29487.5
3.3038e+12 533.398 28954.1 0 29487.5
3.32256e+12 536.474 28951 0 29487.5
3.34134e+12 539.551 28947.9 0 29487.5
3.3601e+12 542.626 28944.9 0 29487.5
3.37887e+12 545.703 28941.8 0 29487.5
3.39765e+12 548.781 28938.7 0 29487.5
3.41639e+12 551.853 28935.6 0 29487.5
3.43516e+12 554.93 28932.6 0 29487.5
3.45395e+12 558.01 28929.5 0 29487.5
3.47273e+12 561.089 28926.4 0 29487.5
3.49151e+12 564.167 28923.3 0 29487.5
3.5103e+12 567.247 28920.2 0 29487.5
3.52909e+12 570.328 28917.2 0 29487.5
3.54786e+12 573.405 28914.1 0 29487.5
3.56665e+12 576.485 28911 0 29487.5
3.58545e+12 579.567 28907.9 0 29487.5
3.60425e+12 582.649 28904.8 0 29487.5
3.62304e+12 585.729 28901.8 0 29487.5
3.64184e+12 588.812 28898.7 0 29487.5
3.66065e+12 591.895 28895.6 0 29487.5
3.67944e+12 594.977 28892.5 0 29487.5
3.69825e+12 598.06 28889.4 0 29487.5
3.71706e+12 601.144 28886.3 0 29487.5
3.73584e+12 604.224 28883.3 0 29487.5
3.75465e+12 607.307 28880.2 0 29487.5
3.77347e+12 610.392 28877.1 0 29487.5
3.79228e+12 613.477 28874 0 29487.5
3.81109e+12 616.561 28870.9 0 29487.5
3.82991e+12 619.647 28867.8 0 29487.5
3.84873e+12 622.733 28864.7 0 29487.5
3.86754e+12 625.818 28861.7 0 29487.5
3.88636e+12 628.904 28858.6 0 29487.5
3.90519e+12 631.992 28855.5 0 29487.5
3.92399e+12 635.074 28852.4 0 29487.5
3.94281e+12 638.16 28849.3 0 29487.5
3.96164e+12 641.248 28846.2 0 29487.5
3.98047e+12 644.336 28843.1 0 29487.5
3.9993e+12 647.423 28840.1 0 29487.5
4.01813e+12 650.512 28837 0 29487.5
4.03697e+12 653.601 28833.9 0 29487.5
4.0558e+12 656.688 28830.8 0 29487.5
4.07463e+12 659.777 28827.7 0 29487.5
4.09348e+12 662.867 28824.6 0 29487.5
4.11232e+12 665.957 28821.5 0 29487.5
4.13116e+12 669.046 28818.4 0 29487.5
4.15e+12 672.137 28815.3 0 29487.5
4.16885e+12 675.228 28812.3 0 29487.5
4.18769e+12 678.318 28809.2 0 29487.5
4.20654e+12 681.409 28806.1 0 29487.5
4.2254e+12 684.502 28803 0 29487.5
4.24423e+12 687.59 28799.9 0 29487.5
4.26308e+12 690.682 28796.8 0 29487.5
4.28194e+12 693.775 28793.7 0 29487.5
4.3008e+12 696.868 28790.6 0 29487.5
4.31965e+12 699.96 28787.5 0 29487.5
4.33851e+12 703.053 28784.4 0 29487.5
4.35737e+12 706.147 28781.3 0 29487.5
4.37623e+12 709.24 28778.2 0 29487.5
4.39509e+12 712.333 28775.2 0 29487.5
4.41396e+12 715.428 28772.1 0 29487.5
4.43281e+12 718.519 28769 0 29487.5
4.45167e+12 721.613 28765.9 0 29487.5
4.47054e+12 724.708 28762.8 0 29487.5
4.48941e+12 727.804 28759.7 0 29487.5
4.50828e+12 730.898 28756.6 0 29487.5
4.52715e+12 733.994 28753.5 0 29487.5
4.54603e+12 737.09 28750.4 0 29487.5
4.5649e+12 740.185 28747.3 0 29487.5
4.58378e+12 743.281 28744.2 0 29487.5
4.60266e+12 746.379 28741.1 0 29487.5
4.62152e+12 749.471 28738 0 29487.5
4.64039e+12 752.568 28734.9 0 29487.5
4.65928e+12 755.666 28731.8 0 29487.5
4.67816e+12 758.763 28728.7 0 29487.5
4.69704e+12 761.86 28725.6 0 29487.5
4.71593e+12 764.958 28722.5 0 29487.5
4.73482e+12 768.057 28719.4 0 29487.5
4.7537e+12 771.154 28716.3 0 29487.5
4.77259e+12 774.252 28713.2 0 29487.5
4.79148e+12 777.352 28710.1 0 29487.5
4.81035e+12 780.446 28707 0 29487.5
4.82924e+12 783.545 28703.9 0 29487.5
4.84814e+12 786.645 28700.8 0 29487.5
4.86703e+12 789.745 28697.7 0 29487.5
4.88593e+12 792.844 28694.6 0 29487.5
4.90483e+12 795.944 28691.5 0 29487.5
4.92373e+12 799.045 28688.4 0 29487.5
4.94262e+12 802.144 28685.3 0 29487.5
4.96152e+12 805.244 28682.2 0 29487.5
4.98043e+12 808.346 28679.1 0 29487.5
4.99933e+12 811.447 28676 0 29487.5
5.01823e+12 814.548 28672.9 0 29487.5
5.03714e+12 817.65 28669.8 0 29487.5
5.05605e+12 820.752 28666.7 0 29487.5
5.07496e+12 823.854 28663.6 0 29487.5
5.09387e+12 826.956 28660.5 0 29487.5
5.11278e+12 830.059 28657.4 0 29487.5
5.13168e+12 833.159 28654.3 0 29487.5
5.15059e+12 836.261 28651.2 0 29487.5
5.16951e+12 839.365 28648.1 0 29487.5
5.18843e+12 842.468 28645 0 29487.5
5.20734e+12 845.571 28641.9 0 29487.5
5.22626e+12 848.675 28638.8 0 29487.5
5.24518e+12 851.779 28635.7 0 29487.5
5.2641e+12 854.883 28632.6 0 29487.5
5.28302e+12 857.987 28629.5 0 29487.5
5.30195e+12 861.092 28626.4 0 29487.5
5.32085e+12 864.194 28623.3 0 29487.5
5.33978e+12 867.298 28620.2 0 29487.5
5.35871e+12 870.404 28617.1 0 29487.5
5.37763e+12 873.509 28614 0 29487.5
5.39656e+12 876.614 28610.9 0 29487.5
5.41549e+12 879.719 28607.8 0 29487.5
5.43442e+12 882.826 28604.7 0 29487.5
5.45335e+12 885.931 28601.6 0 29487.5
5.47228e+12 889.036 28598.5 0 29487.5
5.49122e+12 892.144 28595.3 0 29487.5
5.51013e+12 895.247 28592.2 0 29487.5
5.52907e+12 898.353 28589.1 0 29487.5
5.54801e+12 901.46 28586 0 29487.5
5.56695e+12 904.568 28582.9 0 29487.5
5.58588e+12 907.674 28579.8 0 29487.5
5.60482e+12 910.782 28576.7 0 29487.5
5.62377e+12 913.89 28573.6 0 29487.5
5.6427e+12 916.996 28570.5 0 29487.5
5.66164e+12 920.104 28567.4 0 29487.5
5.68059e+12 923.213 28564.3 0 29487.5
5.69951e+12 926.317 28561.2 0 29487.5
5.71846e+12 929.425 28558.1 0 29487.5
5.7374e+12 932.534 28555 0 29487.5
5.75635e+12 935.643 28551.8 0 29487.5
5.7753e+12 938.752 28548.7 0 29487.5
5.79425e+12 941.861 28545.6 0 29487.5
5.81321e+12 944.971 28542.5 0 29487.5
5.83215e+12 948.078 28539.4 0 29487.5
5.8511e+12 951.188 28536.3 0 29487.5
5.87006e+12 954.298 28533.2 0 29487.5
5.88901e+12 957.408 28530.1 0 29487.5
5.90796e+12 960.518 28527 0 29487.5
5.92692e+12 963.629 28523.9 0 29487.5
5.94588e+12 966.739 28520.8 0 29487.5
5.96484e+12 969.85 28517.6 0 29487.5
5.9838e+12 972.96 28514.5 0 29487.5
6.00276e+12 976.072 28511.4 0 29487.5
6.02171e+12 979.181 28508.3 0 29487.5
6.04067e+12 982.292 28505.2 0 29487.5
6.05964e+12 985.404 28502.1 0 29487.5
6.0786e+12 988.515 28499 0 29487.5
6.09757e+12 991.627 28495.9 0 29487.5
6.11653e+12 994.739 28492.8 0 29487.5
6.1355e+12 997.851 28489.6 0 29487.5
6.15447e+12 1000.96 28486.5 0 29487.5
6.17344e+12 1004.08 28483.4 0 29487.5
